Sample:	'UV-1-DBP_0.00000938&DMSO_0.0001033(MeCN)
File name:	UV-1-DPB_0.00000938&DMSO_0.0001033(MeCN).UDS
Run Date:	'16:48:37, 08/13/2026
Operator:	DELL
Comment:	'

Instrument
Model:	U-3900H Spectrophotometer
Serial Number:	'2192-001
ROM Version:	2J25300 07

Instrument Parameters
Measurement Type:	Wavelength Scan
Data Mode:	Abs
Start Wavelength:	800.00 nm
End Wavelength:	200.00 nm
Scan Speed:	300 nm/min
Sampling Interval:	0.50 nm
Delay:	0 s
Cycle Time:	0.1 min
Replicates:	1
Auto Zero before each run:	Off
Slit Width:	0.5 nm
PMT Voltage:	Auto
Lamp Change Mode:	Auto
Lamp Change Wavelength:	325.00 nm
Baseline Correction:	User 1(test_1)
High Resolution:	On
D2 Lamp:	On
WI Lamp:	On
R/S Reverse:	Off
Path Correct:	On
Path Length:	10.0 mm

Data Points
nm	Abs
800.00	-0.005
799.50	0.001
799.00	0.002
798.50	-0.003
798.00	-0.004
797.50	0.002
797.00	0.001
796.50	0.002
796.00	-0.001
795.50	0.001
795.00	-0.004
794.50	0.002
794.00	-0.004
793.50	-0.001
793.00	-0.004
792.50	0.003
792.00	0.001
791.50	-0.008
791.00	0.001
790.50	0.002
790.00	0.003
789.50	-0.005
789.00	0.002
788.50	-0.007
788.00	0.002
787.50	-0.001
787.00	0.002
786.50	-0.002
786.00	0.002
785.50	-0.002
785.00	0.002
784.50	-0.001
784.00	0.000
783.50	0.001
783.00	0.004
782.50	0.000
782.00	-0.003
781.50	0.003
781.00	-0.001
780.50	-0.002
780.00	0.001
779.50	0.002
779.00	-0.003
778.50	-0.001
778.00	-0.002
777.50	-0.001
777.00	-0.002
776.50	0.001
776.00	-0.003
775.50	-0.001
775.00	0.002
774.50	-0.004
774.00	-0.003
773.50	-0.003
773.00	-0.002
772.50	0.000
772.00	0.002
771.50	-0.004
771.00	0.003
770.50	0.002
770.00	0.004
769.50	0.001
769.00	-0.005
768.50	0.002
768.00	-0.006
767.50	-0.002
767.00	-0.006
766.50	-0.005
766.00	-0.003
765.50	-0.004
765.00	0.000
764.50	-0.004
764.00	0.001
763.50	-0.001
763.00	0.000
762.50	-0.002
762.00	-0.002
761.50	0.002
761.00	0.002
760.50	-0.002
760.00	-0.002
759.50	-0.003
759.00	0.003
758.50	0.001
758.00	0.000
757.50	-0.003
757.00	0.000
756.50	-0.002
756.00	-0.006
755.50	-0.001
755.00	-0.003
754.50	0.001
754.00	0.006
753.50	-0.002
753.00	-0.002
752.50	0.002
752.00	-0.002
751.50	-0.001
751.00	0.000
750.50	0.000
750.00	0.000
749.50	0.001
749.00	0.002
748.50	0.000
748.00	0.002
747.50	-0.002
747.00	-0.003
746.50	0.000
746.00	-0.002
745.50	0.002
745.00	-0.001
744.50	0.000
744.00	-0.001
743.50	-0.002
743.00	0.000
742.50	-0.002
742.00	0.001
741.50	0.000
741.00	0.001
740.50	-0.003
740.00	-0.001
739.50	-0.001
739.00	-0.001
738.50	-0.005
738.00	-0.001
737.50	0.000
737.00	-0.001
736.50	0.004
736.00	-0.007
735.50	0.000
735.00	-0.002
734.50	0.001
734.00	-0.003
733.50	-0.009
733.00	-0.001
732.50	0.001
732.00	0.000
731.50	-0.002
731.00	0.001
730.50	0.001
730.00	-0.001
729.50	-0.003
729.00	-0.003
728.50	0.000
728.00	0.001
727.50	-0.002
727.00	0.002
726.50	0.001
726.00	-0.003
725.50	-0.006
725.00	0.002
724.50	-0.002
724.00	0.000
723.50	0.001
723.00	-0.001
722.50	-0.001
722.00	-0.001
721.50	-0.002
721.00	-0.003
720.50	0.002
720.00	-0.004
719.50	-0.002
719.00	-0.003
718.50	0.000
718.00	-0.004
717.50	-0.002
717.00	-0.003
716.50	-0.003
716.00	0.001
715.50	-0.003
715.00	-0.002
714.50	-0.002
714.00	-0.003
713.50	0.000
713.00	-0.002
712.50	-0.005
712.00	-0.004
711.50	-0.001
711.00	-0.001
710.50	-0.001
710.00	0.001
709.50	-0.002
709.00	-0.002
708.50	-0.003
708.00	-0.001
707.50	-0.003
707.00	-0.003
706.50	-0.001
706.00	-0.004
705.50	-0.001
705.00	-0.005
704.50	0.001
704.00	0.000
703.50	0.001
703.00	0.001
702.50	-0.002
702.00	0.000
701.50	0.000
701.00	0.000
700.50	-0.002
700.00	-0.004
699.50	0.000
699.00	0.002
698.50	-0.001
698.00	0.002
697.50	0.002
697.00	-0.002
696.50	-0.003
696.00	-0.004
695.50	-0.002
695.00	-0.001
694.50	0.001
694.00	-0.001
693.50	0.000
693.00	-0.004
692.50	-0.002
692.00	0.002
691.50	0.001
691.00	0.001
690.50	-0.002
690.00	0.002
689.50	0.001
689.00	0.002
688.50	0.000
688.00	0.000
687.50	-0.003
687.00	-0.002
686.50	-0.001
686.00	0.001
685.50	-0.002
685.00	-0.003
684.50	-0.001
684.00	-0.002
683.50	-0.005
683.00	-0.002
682.50	0.001
682.00	-0.001
681.50	-0.002
681.00	0.000
680.50	-0.003
680.00	-0.001
679.50	-0.002
679.00	0.000
678.50	0.000
678.00	-0.002
677.50	0.001
677.00	-0.002
676.50	-0.003
676.00	-0.004
675.50	-0.002
675.00	0.000
674.50	-0.004
674.00	-0.001
673.50	-0.001
673.00	0.000
672.50	0.001
672.00	0.001
671.50	0.001
671.00	-0.001
670.50	-0.001
670.00	-0.002
669.50	-0.001
669.00	-0.001
668.50	0.002
668.00	-0.001
667.50	-0.004
667.00	0.000
666.50	-0.003
666.00	0.000
665.50	-0.002
665.00	-0.001
664.50	0.002
664.00	-0.001
663.50	0.000
663.00	-0.002
662.50	0.000
662.00	-0.002
661.50	0.000
661.00	0.001
660.50	0.000
660.00	-0.002
659.50	-0.003
659.00	-0.001
658.50	-0.003
658.00	-0.001
657.50	0.001
657.00	0.002
656.50	-0.001
656.00	-0.001
655.50	-0.003
655.00	0.002
654.50	0.002
654.00	0.000
653.50	0.000
653.00	-0.001
652.50	-0.002
652.00	-0.002
651.50	-0.002
651.00	-0.003
650.50	-0.003
650.00	-0.003
649.50	-0.002
649.00	-0.001
648.50	-0.002
648.00	-0.001
647.50	0.001
647.00	-0.001
646.50	0.000
646.00	-0.004
645.50	-0.004
645.00	0.000
644.50	-0.004
644.00	-0.002
643.50	-0.001
643.00	0.000
642.50	-0.001
642.00	0.000
641.50	0.001
641.00	-0.001
640.50	-0.001
640.00	0.000
639.50	0.000
639.00	-0.001
638.50	-0.001
638.00	-0.001
637.50	0.000
637.00	-0.001
636.50	-0.001
636.00	-0.002
635.50	0.001
635.00	-0.003
634.50	-0.003
634.00	0.000
633.50	-0.001
633.00	-0.002
632.50	-0.002
632.00	-0.002
631.50	-0.002
631.00	0.001
630.50	0.000
630.00	-0.001
629.50	-0.001
629.00	0.000
628.50	-0.001
628.00	-0.001
627.50	-0.001
627.00	-0.001
626.50	0.002
626.00	0.002
625.50	-0.003
625.00	0.000
624.50	-0.002
624.00	0.000
623.50	-0.001
623.00	0.000
622.50	-0.002
622.00	-0.002
621.50	0.001
621.00	0.000
620.50	0.002
620.00	-0.001
619.50	0.000
619.00	-0.002
618.50	0.000
618.00	0.001
617.50	0.001
617.00	-0.003
616.50	-0.001
616.00	-0.003
615.50	0.001
615.00	-0.001
614.50	-0.001
614.00	0.000
613.50	-0.001
613.00	-0.002
612.50	-0.002
612.00	0.000
611.50	-0.001
611.00	0.001
610.50	0.001
610.00	-0.002
609.50	0.000
609.00	-0.002
608.50	0.000
608.00	-0.002
607.50	-0.002
607.00	-0.002
606.50	0.001
606.00	0.001
605.50	-0.002
605.00	0.002
604.50	-0.004
604.00	-0.002
603.50	-0.001
603.00	0.000
602.50	-0.001
602.00	0.001
601.50	-0.001
601.00	-0.002
600.50	-0.005
600.00	0.001
599.50	-0.002
599.00	-0.001
598.50	0.005
598.00	0.003
597.50	-0.004
597.00	0.002
596.50	-0.004
596.00	-0.005
595.50	0.004
595.00	-0.002
594.50	0.000
594.00	-0.004
593.50	-0.002
593.00	-0.002
592.50	-0.004
592.00	0.001
591.50	0.000
591.00	-0.002
590.50	0.000
590.00	0.000
589.50	0.000
589.00	-0.002
588.50	0.002
588.00	-0.004
587.50	-0.002
587.00	-0.001
586.50	-0.001
586.00	-0.002
585.50	0.000
585.00	-0.001
584.50	-0.002
584.00	0.000
583.50	-0.001
583.00	0.000
582.50	-0.002
582.00	-0.002
581.50	-0.001
581.00	0.001
580.50	-0.002
580.00	-0.002
579.50	0.004
579.00	-0.004
578.50	0.003
578.00	0.000
577.50	-0.001
577.00	0.000
576.50	-0.004
576.00	-0.001
575.50	-0.002
575.00	-0.001
574.50	-0.001
574.00	-0.002
573.50	0.001
573.00	0.000
572.50	0.000
572.00	-0.002
571.50	-0.002
571.00	-0.001
570.50	0.001
570.00	-0.001
569.50	-0.002
569.00	-0.002
568.50	-0.005
568.00	-0.001
567.50	0.000
567.00	0.001
566.50	0.001
566.00	-0.001
565.50	0.000
565.00	-0.002
564.50	-0.002
564.00	0.001
563.50	-0.001
563.00	0.000
562.50	0.000
562.00	0.001
561.50	-0.001
561.00	0.001
560.50	0.001
560.00	-0.001
559.50	0.000
559.00	-0.004
558.50	0.000
558.00	-0.002
557.50	0.002
557.00	-0.001
556.50	0.000
556.00	0.000
555.50	-0.003
555.00	0.000
554.50	-0.002
554.00	-0.003
553.50	-0.001
553.00	0.000
552.50	0.000
552.00	0.000
551.50	-0.001
551.00	-0.003
550.50	0.001
550.00	-0.001
549.50	-0.001
549.00	-0.001
548.50	-0.002
548.00	-0.002
547.50	-0.001
547.00	-0.001
546.50	-0.002
546.00	-0.002
545.50	-0.002
545.00	-0.002
544.50	-0.001
544.00	-0.002
543.50	-0.002
543.00	-0.001
542.50	0.000
542.00	0.001
541.50	-0.002
541.00	-0.001
540.50	0.001
540.00	-0.002
539.50	-0.001
539.00	-0.001
538.50	-0.002
538.00	0.001
537.50	0.001
537.00	-0.002
536.50	-0.001
536.00	0.000
535.50	-0.001
535.00	-0.002
534.50	-0.002
534.00	0.001
533.50	-0.002
533.00	-0.002
532.50	-0.001
532.00	0.001
531.50	0.000
531.00	0.000
530.50	0.000
530.00	-0.002
529.50	0.000
529.00	-0.002
528.50	0.000
528.00	-0.002
527.50	0.001
527.00	0.000
526.50	0.000
526.00	0.001
525.50	0.000
525.00	-0.001
524.50	0.000
524.00	0.000
523.50	-0.002
523.00	0.000
522.50	0.000
522.00	-0.003
521.50	-0.001
521.00	0.000
520.50	0.000
520.00	-0.001
519.50	0.000
519.00	-0.001
518.50	-0.002
518.00	0.000
517.50	-0.002
517.00	0.001
516.50	0.001
516.00	0.000
515.50	0.000
515.00	-0.002
514.50	-0.001
514.00	0.000
513.50	-0.001
513.00	-0.003
512.50	-0.001
512.00	-0.002
511.50	-0.002
511.00	0.000
510.50	-0.001
510.00	-0.002
509.50	-0.002
509.00	-0.001
508.50	0.000
508.00	-0.001
507.50	0.000
507.00	0.000
506.50	0.000
506.00	-0.002
505.50	0.001
505.00	0.000
504.50	-0.001
504.00	-0.003
503.50	0.000
503.00	-0.001
502.50	0.000
502.00	0.000
501.50	0.001
501.00	0.001
500.50	0.000
500.00	0.001
499.50	0.001
499.00	0.000
498.50	-0.001
498.00	-0.001
497.50	-0.002
497.00	-0.001
496.50	0.000
496.00	-0.002
495.50	-0.001
495.00	0.003
494.50	-0.003
494.00	0.000
493.50	-0.001
493.00	-0.002
492.50	-0.002
492.00	0.000
491.50	0.001
491.00	0.000
490.50	-0.003
490.00	0.001
489.50	-0.002
489.00	0.002
488.50	0.000
488.00	0.001
487.50	-0.001
487.00	-0.001
486.50	0.001
486.00	-0.003
485.50	0.001
485.00	-0.002
484.50	0.001
484.00	0.000
483.50	0.000
483.00	-0.001
482.50	-0.001
482.00	0.000
481.50	-0.003
481.00	-0.002
480.50	-0.002
480.00	0.001
479.50	0.000
479.00	-0.002
478.50	-0.003
478.00	-0.002
477.50	-0.002
477.00	-0.002
476.50	0.000
476.00	-0.002
475.50	-0.001
475.00	-0.002
474.50	0.000
474.00	0.000
473.50	-0.001
473.00	-0.003
472.50	-0.002
472.00	0.001
471.50	0.001
471.00	-0.001
470.50	-0.003
470.00	-0.003
469.50	-0.001
469.00	0.000
468.50	0.001
468.00	-0.002
467.50	-0.001
467.00	0.001
466.50	-0.003
466.00	-0.002
465.50	0.000
465.00	0.001
464.50	-0.001
464.00	-0.001
463.50	0.000
463.00	0.000
462.50	-0.002
462.00	-0.001
461.50	-0.002
461.00	-0.001
460.50	-0.001
460.00	0.002
459.50	-0.001
459.00	-0.002
458.50	0.000
458.00	0.000
457.50	-0.002
457.00	0.001
456.50	0.001
456.00	-0.001
455.50	-0.002
455.00	-0.001
454.50	-0.001
454.00	0.000
453.50	0.003
453.00	-0.001
452.50	-0.002
452.00	0.000
451.50	0.002
451.00	-0.002
450.50	0.000
450.00	-0.001
449.50	-0.004
449.00	0.001
448.50	-0.002
448.00	0.002
447.50	-0.002
447.00	0.002
446.50	-0.002
446.00	0.001
445.50	-0.001
445.00	-0.005
444.50	-0.001
444.00	0.001
443.50	0.002
443.00	0.002
442.50	-0.001
442.00	-0.001
441.50	-0.002
441.00	0.000
440.50	-0.002
440.00	0.000
439.50	-0.003
439.00	0.001
438.50	0.003
438.00	0.000
437.50	-0.002
437.00	0.002
436.50	-0.002
436.00	-0.001
435.50	0.002
435.00	-0.001
434.50	0.002
434.00	-0.002
433.50	0.000
433.00	-0.001
432.50	0.001
432.00	0.000
431.50	-0.002
431.00	0.003
430.50	-0.002
430.00	0.000
429.50	-0.001
429.00	-0.003
428.50	0.000
428.00	0.001
427.50	-0.001
427.00	-0.004
426.50	-0.001
426.00	-0.002
425.50	0.001
425.00	-0.001
424.50	-0.001
424.00	0.003
423.50	0.002
423.00	0.000
422.50	-0.003
422.00	-0.002
421.50	0.001
421.00	0.002
420.50	-0.001
420.00	0.004
419.50	0.000
419.00	-0.001
418.50	0.003
418.00	0.000
417.50	0.002
417.00	0.003
416.50	-0.002
416.00	-0.001
415.50	0.000
415.00	0.001
414.50	-0.004
414.00	-0.001
413.50	0.001
413.00	0.000
412.50	0.002
412.00	-0.001
411.50	0.003
411.00	0.001
410.50	-0.001
410.00	-0.002
409.50	0.001
409.00	-0.002
408.50	-0.001
408.00	-0.001
407.50	-0.002
407.00	-0.001
406.50	0.002
406.00	0.000
405.50	0.003
405.00	0.001
404.50	0.000
404.00	0.001
403.50	0.001
403.00	0.002
402.50	0.002
402.00	-0.001
401.50	0.000
401.00	-0.002
400.50	0.008
400.00	-0.002
399.50	-0.001
399.00	0.002
398.50	-0.003
398.00	0.003
397.50	0.002
397.00	-0.004
396.50	-0.001
396.00	0.001
395.50	0.001
395.00	-0.002
394.50	-0.002
394.00	-0.001
393.50	0.000
393.00	0.000
392.50	-0.001
392.00	0.000
391.50	-0.002
391.00	-0.005
390.50	0.002
390.00	0.000
389.50	0.001
389.00	-0.001
388.50	0.002
388.00	0.002
387.50	0.001
387.00	0.002
386.50	0.003
386.00	-0.001
385.50	0.000
385.00	-0.001
384.50	0.001
384.00	-0.002
383.50	0.002
383.00	0.000
382.50	-0.001
382.00	-0.004
381.50	0.000
381.00	0.004
380.50	0.001
380.00	-0.002
379.50	0.001
379.00	-0.001
378.50	-0.001
378.00	-0.003
377.50	-0.005
377.00	0.002
376.50	0.001
376.00	0.006
375.50	0.002
375.00	-0.001
374.50	0.001
374.00	0.003
373.50	0.000
373.00	0.000
372.50	0.003
372.00	0.000
371.50	-0.003
371.00	0.000
370.50	0.000
370.00	0.008
369.50	0.003
369.00	-0.001
368.50	-0.002
368.00	0.003
367.50	0.003
367.00	0.007
366.50	0.003
366.00	0.000
365.50	0.003
365.00	0.000
364.50	0.003
364.00	-0.003
363.50	0.000
363.00	-0.002
362.50	0.002
362.00	0.001
361.50	0.001
361.00	0.003
360.50	-0.004
360.00	0.000
359.50	0.004
359.00	0.001
358.50	0.005
358.00	0.003
357.50	0.006
357.00	0.006
356.50	-0.001
356.00	0.003
355.50	0.000
355.00	0.002
354.50	0.000
354.00	0.000
353.50	0.007
353.00	0.001
352.50	-0.001
352.00	-0.001
351.50	0.006
351.00	0.002
350.50	0.009
350.00	0.000
349.50	0.005
349.00	0.002
348.50	0.002
348.00	0.002
347.50	0.006
347.00	0.004
346.50	0.005
346.00	0.006
345.50	0.009
345.00	-0.002
344.50	0.001
344.00	0.003
343.50	0.005
343.00	-0.006
342.50	0.011
342.00	0.003
341.50	0.000
341.00	0.007
340.50	0.004
340.00	-0.003
339.50	0.000
339.00	0.000
338.50	0.004
338.00	0.004
337.50	0.002
337.00	0.004
336.50	0.006
336.00	-0.002
335.50	0.000
335.00	-0.007
334.50	0.008
334.00	0.002
333.50	0.001
333.00	0.000
332.50	-0.003
332.00	0.002
331.50	0.010
331.00	0.002
330.50	0.007
330.00	-0.001
329.50	0.007
329.00	-0.001
328.50	-0.002
328.00	0.000
327.50	-0.010
327.00	-0.001
326.50	0.012
326.00	0.007
325.50	-0.005
325.00	-0.001
324.50	0.000
324.00	0.002
323.50	0.000
323.00	0.006
322.50	0.008
322.00	0.005
321.50	0.006
321.00	0.009
320.50	-0.002
320.00	0.001
319.50	0.004
319.00	0.008
318.50	0.005
318.00	0.001
317.50	0.003
317.00	0.000
316.50	0.006
316.00	0.007
315.50	0.001
315.00	-0.002
314.50	0.004
314.00	0.002
313.50	0.005
313.00	0.004
312.50	0.004
312.00	0.002
311.50	0.004
311.00	0.003
310.50	0.002
310.00	0.002
309.50	0.000
309.00	0.002
308.50	0.001
308.00	0.004
307.50	0.002
307.00	0.004
306.50	0.005
306.00	0.008
305.50	0.006
305.00	0.006
304.50	0.005
304.00	0.006
303.50	0.006
303.00	-0.001
302.50	0.006
302.00	0.005
301.50	0.007
301.00	0.006
300.50	0.004
300.00	0.003
299.50	0.009
299.00	0.005
298.50	0.003
298.00	0.003
297.50	0.005
297.00	0.005
296.50	0.005
296.00	0.005
295.50	0.006
295.00	0.007
294.50	0.003
294.00	0.009
293.50	0.008
293.00	0.005
292.50	0.006
292.00	0.008
291.50	0.007
291.00	0.003
290.50	0.006
290.00	0.007
289.50	0.007
289.00	0.009
288.50	0.009
288.00	0.006
287.50	0.008
287.00	0.014
286.50	0.014
286.00	0.017
285.50	0.019
285.00	0.019
284.50	0.017
284.00	0.014
283.50	0.017
283.00	0.017
282.50	0.019
282.00	0.021
281.50	0.023
281.00	0.021
280.50	0.020
280.00	0.019
279.50	0.022
279.00	0.020
278.50	0.020
278.00	0.021
277.50	0.021
277.00	0.027
276.50	0.025
276.00	0.025
275.50	0.024
275.00	0.025
274.50	0.024
274.00	0.024
273.50	0.023
273.00	0.028
272.50	0.025
272.00	0.022
271.50	0.023
271.00	0.026
270.50	0.024
270.00	0.029
269.50	0.027
269.00	0.024
268.50	0.024
268.00	0.027
267.50	0.026
267.00	0.022
266.50	0.026
266.00	0.021
265.50	0.023
265.00	0.022
264.50	0.023
264.00	0.021
263.50	0.023
263.00	0.021
262.50	0.024
262.00	0.023
261.50	0.025
261.00	0.025
260.50	0.019
260.00	0.022
259.50	0.025
259.00	0.024
258.50	0.024
258.00	0.022
257.50	0.023
257.00	0.022
256.50	0.025
256.00	0.021
255.50	0.023
255.00	0.025
254.50	0.025
254.00	0.024
253.50	0.027
253.00	0.027
252.50	0.030
252.00	0.029
251.50	0.030
251.00	0.029
250.50	0.031
250.00	0.031
249.50	0.030
249.00	0.033
248.50	0.032
248.00	0.036
247.50	0.034
247.00	0.039
246.50	0.039
246.00	0.037
245.50	0.040
245.00	0.044
244.50	0.044
244.00	0.044
243.50	0.050
243.00	0.051
242.50	0.054
242.00	0.056
241.50	0.059
241.00	0.062
240.50	0.065
240.00	0.066
239.50	0.072
239.00	0.072
238.50	0.080
238.00	0.079
237.50	0.083
237.00	0.087
236.50	0.089
236.00	0.091
235.50	0.097
235.00	0.099
234.50	0.104
234.00	0.106
233.50	0.112
233.00	0.115
232.50	0.115
232.00	0.119
231.50	0.126
231.00	0.129
230.50	0.130
230.00	0.138
229.50	0.143
229.00	0.148
228.50	0.149
228.00	0.156
227.50	0.161
227.00	0.164
226.50	0.165
226.00	0.175
225.50	0.182
225.00	0.191
224.50	0.195
224.00	0.201
223.50	0.210
223.00	0.212
222.50	0.213
222.00	0.218
221.50	0.223
221.00	0.227
220.50	0.231
220.00	0.231
219.50	0.238
219.00	0.242
218.50	0.247
218.00	0.243
217.50	0.248
217.00	0.250
216.50	0.248
216.00	0.249
215.50	0.251
215.00	0.256
214.50	0.255
214.00	0.258
213.50	0.255
213.00	0.255
212.50	0.263
212.00	0.268
211.50	0.267
211.00	0.279
210.50	0.280
210.00	0.295
209.50	0.299
209.00	0.313
208.50	0.329
208.00	0.356
207.50	0.368
207.00	0.383
206.50	0.405
206.00	0.459
205.50	0.477
205.00	0.513
204.50	0.538
204.00	0.605
203.50	0.633
203.00	0.669
202.50	0.700
202.00	0.758
201.50	0.777
201.00	0.824
200.50	0.855
200.00	0.889

