Sample:	'UV-20260820-1-DBP_0.0000375(MeCN)
File name:	UV-20260820-1-DPB_0.0000375(MeCN).UDS
Run Date:	'15:30:11, 08/13/2026
Operator:	DELL
Comment:	'

Instrument
Model:	U-3900H Spectrophotometer
Serial Number:	'2192-001
ROM Version:	2J25300 07

Instrument Parameters
Measurement Type:	Wavelength Scan
Data Mode:	Abs
Start Wavelength:	800.00 nm
End Wavelength:	200.00 nm
Scan Speed:	300 nm/min
Sampling Interval:	0.50 nm
Delay:	0 s
Cycle Time:	0.1 min
Replicates:	1
Auto Zero before each run:	Off
Slit Width:	0.5 nm
PMT Voltage:	Auto
Lamp Change Mode:	Auto
Lamp Change Wavelength:	325.00 nm
Baseline Correction:	User 1(test_1)
High Resolution:	On
D2 Lamp:	On
WI Lamp:	On
R/S Reverse:	Off
Path Correct:	On
Path Length:	10.0 mm

Data Points
nm	Abs
800.00	-0.004
799.50	0.002
799.00	0.000
798.50	0.003
798.00	-0.005
797.50	0.005
797.00	0.000
796.50	0.000
796.00	0.000
795.50	-0.001
795.00	-0.002
794.50	-0.003
794.00	0.000
793.50	-0.002
793.00	-0.001
792.50	0.004
792.00	-0.001
791.50	-0.003
791.00	-0.003
790.50	0.003
790.00	0.001
789.50	-0.002
789.00	0.004
788.50	-0.007
788.00	-0.001
787.50	-0.003
787.00	0.002
786.50	0.002
786.00	-0.003
785.50	-0.003
785.00	0.001
784.50	-0.001
784.00	0.002
783.50	0.000
783.00	-0.002
782.50	-0.003
782.00	0.000
781.50	0.001
781.00	0.000
780.50	0.002
780.00	-0.002
779.50	-0.001
779.00	-0.002
778.50	-0.003
778.00	0.003
777.50	-0.005
777.00	0.002
776.50	0.005
776.00	-0.007
775.50	0.002
775.00	0.001
774.50	-0.004
774.00	-0.004
773.50	-0.002
773.00	-0.003
772.50	-0.001
772.00	0.000
771.50	0.000
771.00	0.000
770.50	-0.002
770.00	0.006
769.50	0.000
769.00	-0.001
768.50	-0.001
768.00	-0.002
767.50	0.003
767.00	-0.003
766.50	0.002
766.00	-0.003
765.50	-0.004
765.00	0.003
764.50	-0.003
764.00	-0.001
763.50	-0.001
763.00	0.001
762.50	-0.003
762.00	-0.003
761.50	-0.001
761.00	0.000
760.50	-0.002
760.00	0.000
759.50	-0.001
759.00	0.001
758.50	0.000
758.00	-0.001
757.50	0.000
757.00	0.001
756.50	0.000
756.00	0.000
755.50	-0.001
755.00	-0.002
754.50	-0.004
754.00	0.004
753.50	0.003
753.00	-0.002
752.50	-0.001
752.00	-0.003
751.50	0.002
751.00	0.001
750.50	-0.003
750.00	-0.001
749.50	0.001
749.00	-0.001
748.50	0.000
748.00	-0.001
747.50	0.000
747.00	-0.001
746.50	0.003
746.00	-0.001
745.50	0.000
745.00	-0.001
744.50	0.000
744.00	0.000
743.50	-0.002
743.00	-0.003
742.50	-0.001
742.00	0.001
741.50	-0.001
741.00	0.000
740.50	-0.002
740.00	0.000
739.50	-0.002
739.00	-0.001
738.50	-0.002
738.00	0.002
737.50	-0.001
737.00	-0.002
736.50	0.004
736.00	-0.004
735.50	0.000
735.00	-0.002
734.50	-0.001
734.00	-0.001
733.50	-0.002
733.00	-0.005
732.50	0.000
732.00	0.003
731.50	-0.004
731.00	0.005
730.50	0.000
730.00	0.000
729.50	0.001
729.00	-0.001
728.50	0.000
728.00	0.000
727.50	0.002
727.00	0.001
726.50	0.003
726.00	-0.002
725.50	0.000
725.00	0.002
724.50	-0.005
724.00	-0.002
723.50	0.000
723.00	-0.002
722.50	-0.002
722.00	0.000
721.50	-0.001
721.00	-0.004
720.50	0.000
720.00	-0.002
719.50	-0.001
719.00	-0.002
718.50	0.000
718.00	-0.003
717.50	-0.001
717.00	-0.004
716.50	0.003
716.00	0.001
715.50	-0.001
715.00	0.000
714.50	-0.001
714.00	-0.004
713.50	0.001
713.00	-0.001
712.50	0.000
712.00	-0.003
711.50	-0.004
711.00	0.000
710.50	0.000
710.00	0.002
709.50	0.003
709.00	0.000
708.50	-0.001
708.00	0.001
707.50	-0.002
707.00	-0.001
706.50	-0.002
706.00	-0.003
705.50	0.000
705.00	-0.005
704.50	0.001
704.00	0.000
703.50	0.002
703.00	0.002
702.50	0.001
702.00	-0.001
701.50	-0.001
701.00	0.000
700.50	-0.002
700.00	-0.002
699.50	-0.001
699.00	-0.002
698.50	0.001
698.00	0.001
697.50	-0.001
697.00	-0.001
696.50	-0.002
696.00	-0.002
695.50	0.001
695.00	-0.001
694.50	-0.001
694.00	0.002
693.50	-0.003
693.00	-0.001
692.50	-0.001
692.00	0.001
691.50	-0.002
691.00	0.001
690.50	-0.002
690.00	0.001
689.50	-0.001
689.00	0.000
688.50	0.000
688.00	0.000
687.50	0.001
687.00	-0.002
686.50	0.002
686.00	0.001
685.50	-0.002
685.00	-0.002
684.50	0.000
684.00	-0.001
683.50	-0.002
683.00	-0.002
682.50	0.000
682.00	0.000
681.50	-0.001
681.00	0.000
680.50	0.002
680.00	-0.002
679.50	0.000
679.00	-0.001
678.50	-0.003
678.00	-0.001
677.50	0.002
677.00	0.000
676.50	-0.001
676.00	0.001
675.50	0.000
675.00	0.000
674.50	-0.003
674.00	0.002
673.50	-0.001
673.00	0.000
672.50	0.000
672.00	0.001
671.50	0.001
671.00	0.001
670.50	0.001
670.00	0.000
669.50	-0.001
669.00	0.000
668.50	0.001
668.00	-0.001
667.50	0.001
667.00	0.001
666.50	-0.004
666.00	0.000
665.50	-0.001
665.00	0.000
664.50	0.002
664.00	-0.001
663.50	-0.002
663.00	-0.002
662.50	0.002
662.00	0.000
661.50	0.000
661.00	0.001
660.50	0.000
660.00	-0.001
659.50	-0.003
659.00	0.002
658.50	-0.001
658.00	-0.002
657.50	0.000
657.00	0.000
656.50	0.000
656.00	-0.001
655.50	-0.003
655.00	-0.001
654.50	0.002
654.00	0.001
653.50	-0.001
653.00	0.000
652.50	0.000
652.00	0.000
651.50	-0.003
651.00	0.000
650.50	-0.005
650.00	0.001
649.50	-0.001
649.00	-0.001
648.50	0.001
648.00	-0.001
647.50	-0.002
647.00	0.001
646.50	0.000
646.00	-0.002
645.50	-0.003
645.00	-0.001
644.50	-0.002
644.00	-0.001
643.50	-0.001
643.00	-0.001
642.50	-0.001
642.00	-0.003
641.50	0.003
641.00	-0.001
640.50	0.000
640.00	0.000
639.50	0.000
639.00	-0.001
638.50	0.001
638.00	0.001
637.50	-0.001
637.00	-0.002
636.50	0.001
636.00	-0.002
635.50	0.002
635.00	0.000
634.50	-0.002
634.00	0.000
633.50	0.003
633.00	-0.002
632.50	0.000
632.00	-0.003
631.50	-0.003
631.00	0.002
630.50	0.000
630.00	0.001
629.50	-0.001
629.00	-0.001
628.50	0.000
628.00	-0.001
627.50	-0.002
627.00	-0.002
626.50	0.001
626.00	0.000
625.50	-0.003
625.00	0.000
624.50	0.000
624.00	0.001
623.50	0.001
623.00	0.000
622.50	-0.003
622.00	0.001
621.50	0.000
621.00	0.000
620.50	0.001
620.00	0.000
619.50	-0.002
619.00	0.000
618.50	0.000
618.00	0.000
617.50	0.002
617.00	-0.002
616.50	-0.001
616.00	0.000
615.50	0.001
615.00	-0.002
614.50	-0.001
614.00	0.001
613.50	0.000
613.00	-0.001
612.50	0.000
612.00	-0.001
611.50	-0.003
611.00	0.000
610.50	0.000
610.00	0.000
609.50	0.000
609.00	-0.003
608.50	0.002
608.00	-0.001
607.50	-0.002
607.00	-0.002
606.50	0.000
606.00	0.001
605.50	-0.002
605.00	0.001
604.50	-0.003
604.00	0.000
603.50	-0.003
603.00	-0.001
602.50	0.001
602.00	0.001
601.50	0.000
601.00	-0.001
600.50	-0.005
600.00	-0.002
599.50	-0.002
599.00	0.003
598.50	0.001
598.00	0.003
597.50	0.000
597.00	0.002
596.50	-0.001
596.00	-0.004
595.50	0.000
595.00	-0.003
594.50	0.001
594.00	-0.008
593.50	-0.003
593.00	-0.003
592.50	-0.003
592.00	-0.003
591.50	0.000
591.00	-0.002
590.50	0.002
590.00	0.004
589.50	-0.002
589.00	-0.002
588.50	0.001
588.00	-0.004
587.50	0.003
587.00	0.000
586.50	-0.003
586.00	-0.004
585.50	0.001
585.00	-0.001
584.50	-0.001
584.00	-0.001
583.50	0.000
583.00	0.002
582.50	-0.004
582.00	-0.001
581.50	-0.001
581.00	-0.001
580.50	0.000
580.00	-0.002
579.50	0.003
579.00	-0.002
578.50	0.001
578.00	0.001
577.50	-0.001
577.00	-0.002
576.50	-0.001
576.00	0.000
575.50	-0.001
575.00	-0.002
574.50	-0.001
574.00	-0.003
573.50	-0.002
573.00	-0.003
572.50	-0.001
572.00	-0.001
571.50	0.001
571.00	-0.002
570.50	-0.001
570.00	-0.001
569.50	0.002
569.00	-0.002
568.50	-0.003
568.00	-0.002
567.50	-0.001
567.00	0.002
566.50	0.000
566.00	0.001
565.50	-0.001
565.00	-0.002
564.50	-0.001
564.00	0.000
563.50	0.000
563.00	0.000
562.50	0.000
562.00	0.002
561.50	0.003
561.00	0.001
560.50	0.005
560.00	0.000
559.50	0.000
559.00	-0.002
558.50	0.001
558.00	-0.001
557.50	0.002
557.00	-0.002
556.50	0.000
556.00	0.000
555.50	-0.001
555.00	-0.001
554.50	-0.001
554.00	-0.001
553.50	0.001
553.00	-0.002
552.50	-0.002
552.00	-0.002
551.50	-0.002
551.00	-0.001
550.50	0.000
550.00	-0.001
549.50	-0.002
549.00	0.000
548.50	0.000
548.00	-0.001
547.50	0.001
547.00	0.000
546.50	-0.002
546.00	-0.003
545.50	-0.001
545.00	-0.001
544.50	-0.002
544.00	-0.002
543.50	-0.001
543.00	0.000
542.50	0.000
542.00	0.001
541.50	0.000
541.00	0.000
540.50	0.001
540.00	0.001
539.50	0.000
539.00	0.000
538.50	-0.001
538.00	-0.001
537.50	0.002
537.00	-0.002
536.50	0.000
536.00	0.001
535.50	0.000
535.00	-0.001
534.50	-0.001
534.00	0.001
533.50	0.000
533.00	0.000
532.50	-0.001
532.00	0.000
531.50	-0.002
531.00	0.000
530.50	0.000
530.00	-0.001
529.50	0.000
529.00	-0.001
528.50	0.000
528.00	-0.001
527.50	0.002
527.00	0.001
526.50	0.001
526.00	0.000
525.50	0.000
525.00	-0.001
524.50	-0.001
524.00	-0.001
523.50	-0.002
523.00	-0.001
522.50	-0.001
522.00	-0.001
521.50	-0.001
521.00	0.001
520.50	-0.001
520.00	-0.001
519.50	0.001
519.00	-0.001
518.50	0.000
518.00	0.001
517.50	0.000
517.00	-0.002
516.50	0.001
516.00	0.000
515.50	0.002
515.00	-0.002
514.50	0.001
514.00	0.000
513.50	-0.001
513.00	-0.002
512.50	0.002
512.00	-0.003
511.50	-0.002
511.00	0.001
510.50	-0.002
510.00	0.000
509.50	-0.002
509.00	-0.002
508.50	0.001
508.00	0.000
507.50	0.000
507.00	0.000
506.50	-0.001
506.00	-0.002
505.50	0.000
505.00	0.000
504.50	-0.001
504.00	-0.002
503.50	-0.002
503.00	-0.001
502.50	0.000
502.00	0.000
501.50	0.000
501.00	0.001
500.50	0.000
500.00	0.002
499.50	0.000
499.00	0.000
498.50	-0.001
498.00	-0.001
497.50	-0.001
497.00	0.001
496.50	-0.001
496.00	0.000
495.50	0.000
495.00	0.000
494.50	-0.003
494.00	0.001
493.50	-0.001
493.00	-0.001
492.50	-0.003
492.00	-0.003
491.50	0.001
491.00	0.002
490.50	-0.001
490.00	0.000
489.50	-0.001
489.00	0.002
488.50	0.002
488.00	0.001
487.50	-0.001
487.00	-0.001
486.50	0.000
486.00	-0.003
485.50	0.001
485.00	-0.002
484.50	0.000
484.00	0.000
483.50	0.001
483.00	-0.002
482.50	-0.002
482.00	-0.002
481.50	-0.002
481.00	-0.001
480.50	0.000
480.00	0.003
479.50	0.001
479.00	0.000
478.50	-0.004
478.00	-0.002
477.50	-0.003
477.00	-0.003
476.50	0.000
476.00	-0.001
475.50	-0.001
475.00	0.001
474.50	-0.003
474.00	-0.001
473.50	-0.001
473.00	-0.002
472.50	0.000
472.00	0.001
471.50	0.000
471.00	0.003
470.50	-0.002
470.00	-0.002
469.50	-0.001
469.00	0.001
468.50	-0.001
468.00	0.002
467.50	-0.002
467.00	0.000
466.50	0.000
466.00	-0.001
465.50	0.001
465.00	-0.001
464.50	-0.001
464.00	-0.001
463.50	-0.001
463.00	0.000
462.50	-0.002
462.00	-0.001
461.50	-0.004
461.00	0.001
460.50	0.001
460.00	0.001
459.50	0.000
459.00	-0.001
458.50	0.000
458.00	-0.001
457.50	0.000
457.00	0.000
456.50	-0.001
456.00	-0.002
455.50	-0.002
455.00	-0.002
454.50	-0.002
454.00	-0.001
453.50	0.001
453.00	-0.001
452.50	-0.002
452.00	0.001
451.50	0.000
451.00	-0.001
450.50	0.002
450.00	0.002
449.50	0.000
449.00	0.000
448.50	-0.002
448.00	0.002
447.50	-0.003
447.00	0.001
446.50	0.003
446.00	-0.002
445.50	-0.001
445.00	-0.005
444.50	0.002
444.00	-0.001
443.50	0.001
443.00	-0.001
442.50	-0.003
442.00	0.002
441.50	-0.001
441.00	0.000
440.50	-0.003
440.00	0.000
439.50	-0.003
439.00	0.001
438.50	0.002
438.00	0.000
437.50	-0.001
437.00	0.001
436.50	-0.005
436.00	0.000
435.50	0.004
435.00	-0.001
434.50	-0.001
434.00	-0.001
433.50	-0.002
433.00	0.000
432.50	0.001
432.00	0.002
431.50	0.000
431.00	-0.001
430.50	-0.004
430.00	-0.002
429.50	0.001
429.00	0.000
428.50	0.002
428.00	0.000
427.50	0.001
427.00	-0.004
426.50	-0.002
426.00	-0.003
425.50	0.000
425.00	-0.001
424.50	-0.001
424.00	0.002
423.50	-0.002
423.00	0.000
422.50	-0.002
422.00	0.002
421.50	0.000
421.00	-0.001
420.50	-0.003
420.00	0.002
419.50	-0.001
419.00	0.000
418.50	-0.001
418.00	0.001
417.50	0.002
417.00	0.003
416.50	-0.001
416.00	-0.002
415.50	-0.001
415.00	0.001
414.50	-0.001
414.00	-0.001
413.50	-0.003
413.00	0.002
412.50	-0.001
412.00	0.000
411.50	0.000
411.00	0.001
410.50	-0.005
410.00	-0.001
409.50	-0.001
409.00	-0.002
408.50	0.001
408.00	-0.003
407.50	-0.001
407.00	-0.001
406.50	0.001
406.00	0.003
405.50	0.001
405.00	-0.002
404.50	0.001
404.00	0.000
403.50	0.002
403.00	0.003
402.50	0.000
402.00	-0.002
401.50	0.002
401.00	0.003
400.50	0.003
400.00	-0.001
399.50	-0.002
399.00	0.001
398.50	-0.002
398.00	0.000
397.50	0.000
397.00	-0.002
396.50	0.000
396.00	-0.003
395.50	0.001
395.00	-0.002
394.50	0.000
394.00	0.001
393.50	0.004
393.00	-0.003
392.50	0.003
392.00	-0.002
391.50	0.001
391.00	-0.004
390.50	0.006
390.00	0.000
389.50	-0.002
389.00	-0.001
388.50	0.002
388.00	-0.003
387.50	0.003
387.00	0.000
386.50	0.001
386.00	-0.002
385.50	0.000
385.00	-0.001
384.50	0.005
384.00	-0.002
383.50	0.003
383.00	0.000
382.50	-0.004
382.00	-0.004
381.50	0.001
381.00	0.005
380.50	-0.001
380.00	0.001
379.50	0.005
379.00	0.001
378.50	0.001
378.00	-0.001
377.50	-0.003
377.00	0.006
376.50	-0.003
376.00	0.006
375.50	0.001
375.00	0.002
374.50	0.003
374.00	0.001
373.50	-0.001
373.00	0.002
372.50	0.001
372.00	0.001
371.50	-0.002
371.00	0.000
370.50	0.002
370.00	0.002
369.50	0.003
369.00	0.003
368.50	0.003
368.00	-0.001
367.50	-0.003
367.00	0.003
366.50	0.000
366.00	0.002
365.50	0.002
365.00	0.002
364.50	-0.003
364.00	-0.001
363.50	0.000
363.00	-0.003
362.50	0.001
362.00	-0.001
361.50	0.004
361.00	-0.001
360.50	0.000
360.00	0.000
359.50	0.004
359.00	0.007
358.50	0.004
358.00	0.004
357.50	0.001
357.00	0.005
356.50	0.001
356.00	0.002
355.50	0.003
355.00	0.002
354.50	0.002
354.00	-0.003
353.50	0.005
353.00	0.010
352.50	0.002
352.00	-0.004
351.50	0.008
351.00	0.009
350.50	0.000
350.00	0.001
349.50	0.000
349.00	0.001
348.50	0.004
348.00	-0.001
347.50	-0.001
347.00	-0.002
346.50	0.001
346.00	0.007
345.50	0.007
345.00	-0.003
344.50	-0.006
344.00	0.003
343.50	0.006
343.00	-0.003
342.50	0.008
342.00	0.008
341.50	0.003
341.00	0.004
340.50	0.004
340.00	-0.002
339.50	0.002
339.00	0.005
338.50	0.003
338.00	0.006
337.50	0.000
337.00	0.002
336.50	0.005
336.00	-0.002
335.50	-0.001
335.00	-0.005
334.50	0.008
334.00	0.004
333.50	0.003
333.00	0.002
332.50	-0.007
332.00	0.002
331.50	0.004
331.00	0.007
330.50	0.006
330.00	0.008
329.50	0.004
329.00	0.000
328.50	-0.001
328.00	-0.004
327.50	-0.006
327.00	-0.001
326.50	0.009
326.00	0.006
325.50	0.000
325.00	0.006
324.50	-0.004
324.00	-0.002
323.50	0.001
323.00	0.001
322.50	0.002
322.00	0.000
321.50	0.006
321.00	0.002
320.50	-0.003
320.00	-0.001
319.50	0.003
319.00	0.001
318.50	-0.003
318.00	-0.001
317.50	0.001
317.00	-0.004
316.50	0.001
316.00	0.003
315.50	0.003
315.00	-0.001
314.50	0.002
314.00	0.000
313.50	0.001
313.00	0.001
312.50	0.003
312.00	0.002
311.50	0.002
311.00	0.000
310.50	0.000
310.00	0.000
309.50	-0.002
309.00	0.000
308.50	-0.005
308.00	0.001
307.50	-0.003
307.00	0.001
306.50	0.003
306.00	0.002
305.50	0.004
305.00	0.003
304.50	0.003
304.00	0.000
303.50	0.006
303.00	0.000
302.50	0.005
302.00	0.002
301.50	-0.001
301.00	0.002
300.50	0.000
300.00	0.002
299.50	0.002
299.00	0.004
298.50	0.002
298.00	0.002
297.50	0.006
297.00	0.002
296.50	0.002
296.00	0.000
295.50	0.000
295.00	0.002
294.50	0.005
294.00	0.011
293.50	0.002
293.00	0.004
292.50	0.005
292.00	0.000
291.50	0.004
291.00	0.003
290.50	0.007
290.00	0.008
289.50	0.011
289.00	0.009
288.50	0.015
288.00	0.015
287.50	0.017
287.00	0.023
286.50	0.026
286.00	0.029
285.50	0.031
285.00	0.036
284.50	0.041
284.00	0.038
283.50	0.042
283.00	0.049
282.50	0.049
282.00	0.051
281.50	0.052
281.00	0.051
280.50	0.055
280.00	0.055
279.50	0.051
279.00	0.052
278.50	0.055
278.00	0.057
277.50	0.056
277.00	0.059
276.50	0.058
276.00	0.058
275.50	0.059
275.00	0.059
274.50	0.060
274.00	0.057
273.50	0.061
273.00	0.061
272.50	0.059
272.00	0.058
271.50	0.059
271.00	0.058
270.50	0.058
270.00	0.058
269.50	0.060
269.00	0.057
268.50	0.054
268.00	0.056
267.50	0.055
267.00	0.051
266.50	0.050
266.00	0.051
265.50	0.049
265.00	0.047
264.50	0.051
264.00	0.045
263.50	0.046
263.00	0.045
262.50	0.048
262.00	0.048
261.50	0.049
261.00	0.050
260.50	0.048
260.00	0.046
259.50	0.048
259.00	0.047
258.50	0.047
258.00	0.050
257.50	0.050
257.00	0.051
256.50	0.051
256.00	0.051
255.50	0.054
255.00	0.054
254.50	0.055
254.00	0.056
253.50	0.062
253.00	0.063
252.50	0.065
252.00	0.069
251.50	0.070
251.00	0.069
250.50	0.072
250.00	0.076
249.50	0.078
249.00	0.082
248.50	0.084
248.00	0.092
247.50	0.091
247.00	0.098
246.50	0.099
246.00	0.106
245.50	0.108
245.00	0.118
244.50	0.118
244.00	0.129
243.50	0.136
243.00	0.143
242.50	0.153
242.00	0.164
241.50	0.172
241.00	0.181
240.50	0.188
240.00	0.198
239.50	0.210
239.00	0.219
238.50	0.227
238.00	0.242
237.50	0.247
237.00	0.255
236.50	0.266
236.00	0.275
235.50	0.285
235.00	0.289
234.50	0.295
234.00	0.307
233.50	0.314
233.00	0.322
232.50	0.327
232.00	0.334
231.50	0.344
231.00	0.350
230.50	0.354
230.00	0.372
229.50	0.367
229.00	0.374
228.50	0.377
228.00	0.383
227.50	0.389
227.00	0.393
226.50	0.392
226.00	0.399
225.50	0.399
225.00	0.406
224.50	0.407
224.00	0.412
223.50	0.408
223.00	0.413
222.50	0.401
222.00	0.405
221.50	0.403
221.00	0.398
220.50	0.400
220.00	0.390
219.50	0.389
219.00	0.382
218.50	0.389
218.00	0.374
217.50	0.370
217.00	0.366
216.50	0.364
216.00	0.362
215.50	0.357
215.00	0.356
214.50	0.358
214.00	0.351
213.50	0.356
213.00	0.355
212.50	0.369
212.00	0.375
211.50	0.382
211.00	0.398
210.50	0.417
210.00	0.438
209.50	0.453
209.00	0.481
208.50	0.533
208.00	0.571
207.50	0.612
207.00	0.664
206.50	0.739
206.00	0.819
205.50	0.864
205.00	0.950
204.50	1.053
204.00	1.146
203.50	1.204
203.00	1.291
202.50	1.382
202.00	1.465
201.50	1.564
201.00	1.601
200.50	1.687
200.00	1.762

