Sample:	'UV-20260820-1-DMSO_0.0002065(MeCN)
File name:	UV-20260820-1-DMSO_0.0002065(MeCN).UDS
Run Date:	'16:18:34, 08/13/2026
Operator:	DELL
Comment:	'

Instrument
Model:	U-3900H Spectrophotometer
Serial Number:	'2192-001
ROM Version:	2J25300 07

Instrument Parameters
Measurement Type:	Wavelength Scan
Data Mode:	Abs
Start Wavelength:	800.00 nm
End Wavelength:	200.00 nm
Scan Speed:	300 nm/min
Sampling Interval:	0.50 nm
Delay:	0 s
Cycle Time:	0.1 min
Replicates:	1
Auto Zero before each run:	Off
Slit Width:	0.5 nm
PMT Voltage:	Auto
Lamp Change Mode:	Auto
Lamp Change Wavelength:	325.00 nm
Baseline Correction:	User 1(test_1)
High Resolution:	On
D2 Lamp:	On
WI Lamp:	On
R/S Reverse:	Off
Path Correct:	On
Path Length:	10.0 mm

Data Points
nm	Abs
800.00	-0.002
799.50	0.003
799.00	0.002
798.50	0.003
798.00	-0.002
797.50	0.009
797.00	0.004
796.50	-0.002
796.00	-0.002
795.50	0.003
795.00	-0.001
794.50	-0.001
794.00	-0.002
793.50	0.003
793.00	-0.005
792.50	0.003
792.00	-0.003
791.50	-0.003
791.00	-0.003
790.50	0.002
790.00	0.005
789.50	-0.006
789.00	0.006
788.50	-0.007
788.00	0.002
787.50	0.001
787.00	0.002
786.50	0.005
786.00	-0.003
785.50	0.001
785.00	0.001
784.50	-0.004
784.00	0.006
783.50	0.003
783.00	0.000
782.50	-0.005
782.00	0.001
781.50	0.002
781.00	-0.001
780.50	-0.001
780.00	0.000
779.50	0.000
779.00	0.000
778.50	-0.003
778.00	0.003
777.50	-0.003
777.00	0.003
776.50	0.000
776.00	-0.004
775.50	0.003
775.00	-0.002
774.50	-0.003
774.00	-0.002
773.50	-0.006
773.00	-0.001
772.50	0.001
772.00	0.001
771.50	-0.003
771.00	0.002
770.50	0.000
770.00	0.006
769.50	0.001
769.00	-0.001
768.50	0.002
768.00	-0.002
767.50	-0.002
767.00	-0.001
766.50	0.002
766.00	-0.003
765.50	-0.005
765.00	-0.001
764.50	-0.001
764.00	0.002
763.50	0.003
763.00	0.002
762.50	-0.001
762.00	-0.001
761.50	0.000
761.00	-0.004
760.50	-0.003
760.00	0.000
759.50	0.001
759.00	0.002
758.50	0.000
758.00	0.000
757.50	-0.001
757.00	0.001
756.50	0.000
756.00	-0.002
755.50	-0.001
755.00	-0.002
754.50	0.002
754.00	0.001
753.50	-0.002
753.00	0.000
752.50	0.003
752.00	-0.001
751.50	0.000
751.00	0.001
750.50	-0.001
750.00	0.000
749.50	0.003
749.00	-0.001
748.50	-0.002
748.00	0.001
747.50	0.005
747.00	-0.002
746.50	0.002
746.00	-0.002
745.50	0.001
745.00	0.002
744.50	-0.001
744.00	-0.001
743.50	-0.001
743.00	0.000
742.50	-0.001
742.00	0.001
741.50	0.003
741.00	0.000
740.50	-0.003
740.00	0.002
739.50	0.002
739.00	0.002
738.50	0.000
738.00	0.001
737.50	-0.002
737.00	0.000
736.50	0.004
736.00	-0.008
735.50	-0.003
735.00	0.000
734.50	0.001
734.00	-0.001
733.50	-0.002
733.00	-0.007
732.50	0.003
732.00	-0.001
731.50	-0.003
731.00	0.001
730.50	-0.001
730.00	-0.002
729.50	0.001
729.00	-0.001
728.50	0.001
728.00	0.000
727.50	0.001
727.00	0.000
726.50	0.004
726.00	-0.005
725.50	-0.001
725.00	0.001
724.50	-0.003
724.00	0.002
723.50	0.003
723.00	-0.001
722.50	-0.002
722.00	-0.003
721.50	-0.002
721.00	0.001
720.50	0.000
720.00	-0.002
719.50	-0.006
719.00	-0.002
718.50	-0.002
718.00	-0.002
717.50	-0.001
717.00	-0.004
716.50	0.003
716.00	0.001
715.50	-0.001
715.00	0.001
714.50	0.001
714.00	-0.002
713.50	0.001
713.00	0.001
712.50	-0.003
712.00	0.000
711.50	-0.005
711.00	-0.001
710.50	0.001
710.00	0.003
709.50	0.002
709.00	0.000
708.50	0.000
708.00	-0.001
707.50	-0.003
707.00	-0.001
706.50	0.000
706.00	-0.002
705.50	0.001
705.00	-0.003
704.50	0.000
704.00	0.002
703.50	0.000
703.00	0.001
702.50	-0.001
702.00	-0.001
701.50	-0.001
701.00	0.001
700.50	-0.002
700.00	-0.002
699.50	0.000
699.00	0.001
698.50	0.001
698.00	0.001
697.50	0.002
697.00	0.000
696.50	-0.005
696.00	-0.003
695.50	-0.001
695.00	0.001
694.50	-0.001
694.00	0.002
693.50	0.000
693.00	-0.003
692.50	-0.002
692.00	0.003
691.50	0.002
691.00	0.001
690.50	-0.003
690.00	0.001
689.50	0.001
689.00	-0.003
688.50	0.000
688.00	0.000
687.50	0.001
687.00	-0.005
686.50	0.000
686.00	0.002
685.50	-0.001
685.00	-0.004
684.50	0.000
684.00	-0.002
683.50	-0.001
683.00	-0.003
682.50	0.000
682.00	-0.001
681.50	0.000
681.00	0.001
680.50	0.000
680.00	0.000
679.50	-0.003
679.00	0.000
678.50	0.001
678.00	-0.002
677.50	0.001
677.00	0.002
676.50	-0.002
676.00	-0.004
675.50	0.001
675.00	-0.001
674.50	-0.001
674.00	0.000
673.50	-0.002
673.00	0.001
672.50	0.001
672.00	0.000
671.50	0.001
671.00	-0.001
670.50	0.003
670.00	0.000
669.50	-0.002
669.00	0.001
668.50	0.000
668.00	-0.001
667.50	0.000
667.00	0.001
666.50	-0.002
666.00	0.002
665.50	0.001
665.00	-0.001
664.50	0.004
664.00	0.001
663.50	0.000
663.00	0.000
662.50	0.002
662.00	-0.002
661.50	0.000
661.00	0.001
660.50	0.000
660.00	0.000
659.50	0.000
659.00	0.000
658.50	-0.001
658.00	0.000
657.50	0.001
657.00	0.000
656.50	0.002
656.00	0.002
655.50	-0.003
655.00	0.001
654.50	0.002
654.00	0.003
653.50	0.000
653.00	0.003
652.50	-0.001
652.00	-0.002
651.50	-0.001
651.00	0.001
650.50	-0.001
650.00	-0.001
649.50	-0.001
649.00	0.000
648.50	0.001
648.00	0.000
647.50	0.001
647.00	0.000
646.50	0.000
646.00	-0.001
645.50	0.000
645.00	-0.001
644.50	-0.002
644.00	0.000
643.50	0.000
643.00	-0.001
642.50	-0.002
642.00	-0.001
641.50	0.002
641.00	-0.001
640.50	0.000
640.00	-0.001
639.50	0.000
639.00	0.000
638.50	0.000
638.00	0.002
637.50	0.001
637.00	-0.001
636.50	0.000
636.00	-0.002
635.50	0.000
635.00	0.000
634.50	-0.002
634.00	-0.001
633.50	0.002
633.00	-0.001
632.50	-0.002
632.00	-0.002
631.50	0.000
631.00	0.003
630.50	-0.002
630.00	0.000
629.50	0.000
629.00	0.001
628.50	0.001
628.00	0.001
627.50	-0.001
627.00	-0.001
626.50	0.001
626.00	0.000
625.50	-0.003
625.00	-0.002
624.50	-0.002
624.00	0.000
623.50	-0.002
623.00	0.002
622.50	-0.003
622.00	0.000
621.50	0.000
621.00	0.001
620.50	0.002
620.00	0.001
619.50	-0.002
619.00	0.002
618.50	0.000
618.00	0.001
617.50	0.003
617.00	-0.002
616.50	0.000
616.00	-0.002
615.50	0.000
615.00	-0.001
614.50	0.000
614.00	0.003
613.50	0.001
613.00	0.001
612.50	-0.001
612.00	0.002
611.50	0.000
611.00	0.002
610.50	0.000
610.00	-0.002
609.50	0.001
609.00	-0.003
608.50	0.001
608.00	-0.001
607.50	-0.001
607.00	0.001
606.50	0.001
606.00	0.002
605.50	0.000
605.00	0.000
604.50	-0.002
604.00	0.001
603.50	-0.002
603.00	0.000
602.50	-0.001
602.00	0.001
601.50	-0.002
601.00	0.000
600.50	-0.001
600.00	0.000
599.50	-0.004
599.00	-0.002
598.50	0.003
598.00	0.003
597.50	-0.002
597.00	0.000
596.50	0.000
596.00	-0.005
595.50	0.002
595.00	0.001
594.50	0.001
594.00	-0.006
593.50	-0.005
593.00	-0.001
592.50	0.000
592.00	0.002
591.50	0.000
591.00	0.001
590.50	0.001
590.00	0.003
589.50	0.000
589.00	-0.001
588.50	0.002
588.00	-0.005
587.50	0.000
587.00	-0.003
586.50	0.001
586.00	0.000
585.50	0.002
585.00	-0.002
584.50	-0.001
584.00	-0.001
583.50	0.003
583.00	0.001
582.50	0.000
582.00	0.001
581.50	-0.002
581.00	0.000
580.50	0.001
580.00	-0.005
579.50	0.002
579.00	0.000
578.50	0.001
578.00	0.002
577.50	0.001
577.00	-0.003
576.50	-0.001
576.00	0.003
575.50	-0.001
575.00	-0.001
574.50	-0.002
574.00	0.000
573.50	0.000
573.00	-0.002
572.50	-0.001
572.00	-0.001
571.50	0.001
571.00	-0.002
570.50	0.003
570.00	0.000
569.50	-0.001
569.00	0.000
568.50	0.000
568.00	-0.001
567.50	0.000
567.00	0.004
566.50	0.002
566.00	-0.002
565.50	-0.003
565.00	-0.001
564.50	-0.002
564.00	0.000
563.50	-0.001
563.00	0.000
562.50	-0.001
562.00	0.002
561.50	0.001
561.00	0.001
560.50	0.002
560.00	-0.001
559.50	0.000
559.00	0.001
558.50	-0.002
558.00	0.000
557.50	0.002
557.00	-0.001
556.50	0.000
556.00	0.001
555.50	-0.001
555.00	-0.001
554.50	-0.001
554.00	-0.001
553.50	0.001
553.00	0.000
552.50	-0.002
552.00	-0.001
551.50	0.001
551.00	-0.001
550.50	0.000
550.00	0.000
549.50	-0.001
549.00	0.001
548.50	-0.001
548.00	-0.002
547.50	-0.002
547.00	0.000
546.50	-0.001
546.00	-0.001
545.50	0.000
545.00	0.000
544.50	0.001
544.00	0.000
543.50	-0.001
543.00	0.000
542.50	0.001
542.00	0.001
541.50	0.001
541.00	-0.002
540.50	0.000
540.00	-0.001
539.50	0.001
539.00	0.000
538.50	0.000
538.00	0.002
537.50	0.003
537.00	0.000
536.50	0.000
536.00	0.000
535.50	-0.001
535.00	-0.001
534.50	0.001
534.00	0.000
533.50	0.001
533.00	0.000
532.50	-0.001
532.00	0.001
531.50	0.000
531.00	0.000
530.50	0.002
530.00	-0.001
529.50	-0.001
529.00	-0.002
528.50	0.000
528.00	-0.002
527.50	0.001
527.00	0.000
526.50	0.000
526.00	0.001
525.50	-0.001
525.00	-0.002
524.50	-0.002
524.00	0.000
523.50	0.000
523.00	0.002
522.50	0.001
522.00	-0.001
521.50	-0.001
521.00	0.002
520.50	0.000
520.00	-0.002
519.50	0.001
519.00	-0.001
518.50	0.001
518.00	-0.001
517.50	0.000
517.00	-0.002
516.50	0.001
516.00	0.001
515.50	0.002
515.00	-0.002
514.50	-0.001
514.00	0.001
513.50	0.001
513.00	-0.001
512.50	0.000
512.00	-0.001
511.50	-0.002
511.00	0.000
510.50	-0.001
510.00	0.000
509.50	-0.001
509.00	-0.001
508.50	0.000
508.00	0.001
507.50	0.000
507.00	0.001
506.50	-0.002
506.00	-0.001
505.50	0.001
505.00	-0.001
504.50	-0.002
504.00	-0.002
503.50	-0.001
503.00	0.001
502.50	0.001
502.00	0.000
501.50	0.000
501.00	0.001
500.50	0.000
500.00	0.002
499.50	0.000
499.00	0.001
498.50	0.000
498.00	0.000
497.50	-0.001
497.00	-0.001
496.50	0.002
496.00	-0.002
495.50	-0.001
495.00	0.000
494.50	-0.002
494.00	0.000
493.50	0.000
493.00	0.001
492.50	-0.003
492.00	-0.001
491.50	0.000
491.00	0.001
490.50	0.001
490.00	0.001
489.50	-0.002
489.00	0.002
488.50	0.002
488.00	0.001
487.50	-0.001
487.00	0.002
486.50	0.002
486.00	-0.001
485.50	0.002
485.00	-0.001
484.50	0.001
484.00	0.001
483.50	0.000
483.00	-0.002
482.50	-0.001
482.00	0.000
481.50	-0.001
481.00	0.000
480.50	0.001
480.00	0.002
479.50	-0.001
479.00	0.000
478.50	-0.003
478.00	-0.001
477.50	-0.001
477.00	-0.002
476.50	0.001
476.00	0.001
475.50	0.001
475.00	0.000
474.50	-0.002
474.00	0.001
473.50	-0.004
473.00	-0.002
472.50	-0.002
472.00	0.001
471.50	0.002
471.00	0.001
470.50	-0.002
470.00	-0.001
469.50	0.000
469.00	-0.001
468.50	0.003
468.00	0.002
467.50	0.001
467.00	0.002
466.50	0.001
466.00	-0.001
465.50	0.001
465.00	0.000
464.50	-0.001
464.00	0.001
463.50	0.001
463.00	-0.001
462.50	0.000
462.00	0.001
461.50	-0.001
461.00	-0.001
460.50	0.001
460.00	0.002
459.50	0.002
459.00	-0.001
458.50	-0.002
458.00	-0.001
457.50	-0.001
457.00	0.000
456.50	-0.001
456.00	-0.002
455.50	-0.003
455.00	-0.001
454.50	-0.002
454.00	-0.001
453.50	0.000
453.00	0.000
452.50	0.000
452.00	0.000
451.50	0.001
451.00	0.000
450.50	0.001
450.00	0.002
449.50	-0.001
449.00	-0.001
448.50	-0.001
448.00	0.002
447.50	-0.003
447.00	0.001
446.50	0.003
446.00	0.001
445.50	-0.002
445.00	-0.002
444.50	0.000
444.00	0.001
443.50	0.001
443.00	0.002
442.50	0.000
442.00	0.003
441.50	-0.002
441.00	0.001
440.50	-0.003
440.00	0.003
439.50	-0.003
439.00	0.001
438.50	0.000
438.00	0.002
437.50	-0.001
437.00	-0.001
436.50	0.001
436.00	0.001
435.50	0.003
435.00	0.001
434.50	0.002
434.00	-0.002
433.50	-0.001
433.00	-0.002
432.50	0.001
432.00	0.000
431.50	-0.001
431.00	0.002
430.50	-0.001
430.00	-0.003
429.50	0.002
429.00	0.001
428.50	-0.002
428.00	0.002
427.50	0.000
427.00	-0.002
426.50	0.002
426.00	-0.003
425.50	0.001
425.00	0.000
424.50	-0.001
424.00	0.002
423.50	0.003
423.00	0.000
422.50	-0.002
422.00	0.000
421.50	0.003
421.00	-0.002
420.50	-0.004
420.00	0.003
419.50	-0.002
419.00	0.000
418.50	0.003
418.00	0.004
417.50	0.004
417.00	0.002
416.50	-0.001
416.00	0.000
415.50	0.001
415.00	0.002
414.50	0.000
414.00	0.000
413.50	0.000
413.00	0.003
412.50	0.002
412.00	0.001
411.50	0.001
411.00	0.001
410.50	0.002
410.00	-0.001
409.50	0.000
409.00	0.001
408.50	-0.002
408.00	-0.002
407.50	0.001
407.00	0.000
406.50	0.000
406.00	0.002
405.50	0.003
405.00	0.002
404.50	0.002
404.00	0.005
403.50	0.000
403.00	0.002
402.50	-0.001
402.00	0.001
401.50	0.001
401.00	0.001
400.50	0.004
400.00	0.001
399.50	-0.001
399.00	0.005
398.50	-0.003
398.00	0.003
397.50	0.001
397.00	0.002
396.50	0.002
396.00	0.004
395.50	-0.001
395.00	0.000
394.50	-0.004
394.00	0.002
393.50	0.003
393.00	0.000
392.50	-0.002
392.00	0.001
391.50	-0.001
391.00	-0.003
390.50	0.002
390.00	0.001
389.50	-0.001
389.00	-0.002
388.50	0.005
388.00	0.000
387.50	0.005
387.00	0.001
386.50	0.004
386.00	-0.003
385.50	-0.001
385.00	-0.003
384.50	0.002
384.00	-0.001
383.50	0.002
383.00	0.002
382.50	0.004
382.00	0.000
381.50	-0.001
381.00	0.004
380.50	0.002
380.00	0.001
379.50	0.005
379.00	0.002
378.50	0.005
378.00	0.002
377.50	-0.006
377.00	0.006
376.50	-0.001
376.00	0.008
375.50	0.001
375.00	-0.001
374.50	0.005
374.00	0.004
373.50	0.004
373.00	0.003
372.50	0.002
372.00	-0.001
371.50	-0.003
371.00	0.001
370.50	0.002
370.00	0.004
369.50	0.003
369.00	-0.001
368.50	0.003
368.00	0.003
367.50	0.002
367.00	0.002
366.50	0.001
366.00	0.000
365.50	0.001
365.00	0.002
364.50	0.003
364.00	0.000
363.50	0.003
363.00	-0.001
362.50	-0.002
362.00	0.004
361.50	0.003
361.00	0.002
360.50	0.001
360.00	-0.001
359.50	0.000
359.00	0.001
358.50	0.007
358.00	0.003
357.50	0.004
357.00	0.004
356.50	0.000
356.00	0.000
355.50	0.000
355.00	0.003
354.50	0.002
354.00	0.000
353.50	0.001
353.00	0.000
352.50	-0.001
352.00	0.003
351.50	0.010
351.00	0.003
350.50	0.011
350.00	-0.002
349.50	0.003
349.00	-0.001
348.50	0.002
348.00	0.000
347.50	0.002
347.00	0.001
346.50	0.001
346.00	0.005
345.50	0.006
345.00	0.002
344.50	-0.001
344.00	0.003
343.50	0.001
343.00	-0.002
342.50	0.003
342.00	0.001
341.50	0.001
341.00	0.004
340.50	0.005
340.00	0.001
339.50	-0.002
339.00	0.003
338.50	0.004
338.00	0.004
337.50	0.007
337.00	0.004
336.50	0.008
336.00	0.000
335.50	-0.004
335.00	0.003
334.50	0.008
334.00	0.007
333.50	0.006
333.00	-0.003
332.50	-0.009
332.00	0.009
331.50	0.011
331.00	0.002
330.50	0.004
330.00	0.005
329.50	0.001
329.00	-0.002
328.50	-0.002
328.00	-0.006
327.50	0.001
327.00	0.001
326.50	0.013
326.00	0.006
325.50	-0.002
325.00	0.005
324.50	0.000
324.00	0.001
323.50	0.002
323.00	0.003
322.50	0.006
322.00	0.000
321.50	0.005
321.00	0.007
320.50	-0.001
320.00	0.005
319.50	0.006
319.00	0.009
318.50	0.002
318.00	0.000
317.50	0.001
317.00	-0.001
316.50	0.005
316.00	0.007
315.50	0.003
315.00	0.001
314.50	0.004
314.00	0.003
313.50	0.003
313.00	0.002
312.50	0.003
312.00	0.004
311.50	0.005
311.00	0.006
310.50	0.005
310.00	0.007
309.50	0.001
309.00	0.002
308.50	0.000
308.00	0.007
307.50	0.000
307.00	0.004
306.50	0.006
306.00	0.006
305.50	0.005
305.00	0.007
304.50	0.006
304.00	0.002
303.50	0.004
303.00	-0.002
302.50	0.006
302.00	0.006
301.50	0.005
301.00	0.003
300.50	0.003
300.00	0.001
299.50	0.006
299.00	0.001
298.50	-0.001
298.00	0.005
297.50	0.006
297.00	0.002
296.50	0.006
296.00	0.005
295.50	0.005
295.00	0.004
294.50	0.006
294.00	0.006
293.50	0.006
293.00	0.007
292.50	0.007
292.00	0.004
291.50	0.007
291.00	0.003
290.50	0.006
290.00	0.003
289.50	0.004
289.00	0.006
288.50	0.006
288.00	0.003
287.50	0.002
287.00	0.006
286.50	0.008
286.00	0.008
285.50	0.009
285.00	0.006
284.50	0.009
284.00	0.005
283.50	0.004
283.00	0.007
282.50	0.008
282.00	0.009
281.50	0.011
281.00	0.006
280.50	0.009
280.00	0.006
279.50	0.008
279.00	0.008
278.50	0.009
278.00	0.009
277.50	0.007
277.00	0.010
276.50	0.009
276.00	0.010
275.50	0.009
275.00	0.008
274.50	0.008
274.00	0.007
273.50	0.008
273.00	0.011
272.50	0.010
272.00	0.006
271.50	0.008
271.00	0.012
270.50	0.010
270.00	0.016
269.50	0.014
269.00	0.012
268.50	0.012
268.00	0.014
267.50	0.010
267.00	0.010
266.50	0.011
266.00	0.009
265.50	0.008
265.00	0.010
264.50	0.015
264.00	0.010
263.50	0.010
263.00	0.010
262.50	0.012
262.00	0.012
261.50	0.012
261.00	0.014
260.50	0.013
260.00	0.012
259.50	0.014
259.00	0.009
258.50	0.011
258.00	0.010
257.50	0.013
257.00	0.012
256.50	0.012
256.00	0.007
255.50	0.011
255.00	0.009
254.50	0.009
254.00	0.009
253.50	0.010
253.00	0.012
252.50	0.012
252.00	0.013
251.50	0.011
251.00	0.011
250.50	0.012
250.00	0.012
249.50	0.008
249.00	0.013
248.50	0.014
248.00	0.014
247.50	0.013
247.00	0.014
246.50	0.013
246.00	0.016
245.50	0.012
245.00	0.013
244.50	0.012
244.00	0.015
243.50	0.012
243.00	0.012
242.50	0.017
242.00	0.018
241.50	0.019
241.00	0.019
240.50	0.020
240.00	0.018
239.50	0.019
239.00	0.022
238.50	0.022
238.00	0.025
237.50	0.021
237.00	0.024
236.50	0.027
236.00	0.027
235.50	0.029
235.00	0.031
234.50	0.036
234.00	0.040
233.50	0.045
233.00	0.044
232.50	0.048
232.00	0.050
231.50	0.055
231.00	0.060
230.50	0.062
230.00	0.071
229.50	0.071
229.00	0.078
228.50	0.083
228.00	0.089
227.50	0.100
227.00	0.107
226.50	0.109
226.00	0.122
225.50	0.130
225.00	0.143
224.50	0.148
224.00	0.158
223.50	0.170
223.00	0.181
222.50	0.183
222.00	0.198
221.50	0.205
221.00	0.210
220.50	0.220
220.00	0.224
219.50	0.233
219.00	0.244
218.50	0.256
218.00	0.252
217.50	0.260
217.00	0.266
216.50	0.273
216.00	0.277
215.50	0.282
215.00	0.286
214.50	0.286
214.00	0.293
213.50	0.299
213.00	0.297
212.50	0.306
212.00	0.312
211.50	0.309
211.00	0.317
210.50	0.320
210.00	0.333
209.50	0.338
209.00	0.347
208.50	0.364
208.00	0.382
207.50	0.395
207.00	0.413
206.50	0.423
206.00	0.463
205.50	0.483
205.00	0.513
204.50	0.547
204.00	0.584
203.50	0.599
203.00	0.625
202.50	0.649
202.00	0.698
201.50	0.728
201.00	0.750
200.50	0.771
200.00	0.809

