Sample:	'UV-1-DBP_0.00001875/DMSO_0.0002065(MeCN)
File name:	UV-1-DPB_0.00001875&DMSO_0.0002065(MeCN).UDS
Run Date:	'16:36:53, 08/13/2026
Operator:	DELL
Comment:	'

Instrument
Model:	U-3900H Spectrophotometer
Serial Number:	'2192-001
ROM Version:	2J25300 07

Instrument Parameters
Measurement Type:	Wavelength Scan
Data Mode:	Abs
Start Wavelength:	800.00 nm
End Wavelength:	200.00 nm
Scan Speed:	300 nm/min
Sampling Interval:	0.50 nm
Delay:	0 s
Cycle Time:	0.1 min
Replicates:	1
Auto Zero before each run:	Off
Slit Width:	0.5 nm
PMT Voltage:	Auto
Lamp Change Mode:	Auto
Lamp Change Wavelength:	325.00 nm
Baseline Correction:	User 1(test_1)
High Resolution:	On
D2 Lamp:	On
WI Lamp:	On
R/S Reverse:	Off
Path Correct:	On
Path Length:	10.0 mm

Data Points
nm	Abs
800.00	-0.004
799.50	-0.001
799.00	-0.001
798.50	-0.002
798.00	-0.006
797.50	0.006
797.00	0.002
796.50	0.000
796.00	-0.003
795.50	0.000
795.00	-0.002
794.50	0.001
794.00	-0.005
793.50	-0.002
793.00	-0.003
792.50	0.006
792.00	-0.001
791.50	-0.001
791.00	0.000
790.50	-0.002
790.00	0.004
789.50	-0.004
789.00	0.005
788.50	-0.005
788.00	0.002
787.50	-0.001
787.00	0.004
786.50	0.001
786.00	-0.003
785.50	-0.002
785.00	0.000
784.50	-0.003
784.00	0.001
783.50	0.000
783.00	-0.001
782.50	0.000
782.00	0.002
781.50	-0.001
781.00	-0.002
780.50	-0.001
780.00	0.002
779.50	-0.001
779.00	-0.004
778.50	-0.003
778.00	0.001
777.50	-0.001
777.00	0.000
776.50	0.000
776.00	-0.003
775.50	-0.002
775.00	0.003
774.50	-0.002
774.00	-0.003
773.50	-0.003
773.00	-0.004
772.50	-0.002
772.00	0.001
771.50	-0.003
771.00	0.004
770.50	-0.004
770.00	0.004
769.50	0.001
769.00	-0.002
768.50	0.002
768.00	0.000
767.50	0.000
767.00	-0.003
766.50	-0.002
766.00	0.000
765.50	-0.004
765.00	0.002
764.50	-0.001
764.00	0.000
763.50	0.000
763.00	-0.001
762.50	-0.002
762.00	-0.001
761.50	0.004
761.00	-0.001
760.50	-0.003
760.00	-0.002
759.50	-0.004
759.00	0.002
758.50	0.000
758.00	-0.004
757.50	-0.003
757.00	0.002
756.50	-0.001
756.00	-0.002
755.50	0.002
755.00	-0.003
754.50	0.001
754.00	0.004
753.50	-0.003
753.00	-0.003
752.50	0.002
752.00	-0.002
751.50	0.001
751.00	0.001
750.50	0.000
750.00	0.001
749.50	0.003
749.00	0.001
748.50	0.000
748.00	0.002
747.50	-0.001
747.00	0.002
746.50	0.000
746.00	-0.005
745.50	0.001
745.00	0.001
744.50	0.000
744.00	-0.004
743.50	-0.001
743.00	-0.002
742.50	0.000
742.00	0.001
741.50	-0.002
741.00	0.002
740.50	0.001
740.00	0.002
739.50	-0.002
739.00	0.000
738.50	-0.002
738.00	0.000
737.50	-0.001
737.00	-0.002
736.50	0.002
736.00	-0.004
735.50	0.001
735.00	-0.002
734.50	0.000
734.00	-0.003
733.50	-0.001
733.00	-0.005
732.50	0.005
732.00	0.001
731.50	-0.002
731.00	0.003
730.50	0.001
730.00	0.002
729.50	0.000
729.00	0.001
728.50	-0.003
728.00	0.001
727.50	0.001
727.00	0.002
726.50	0.002
726.00	-0.003
725.50	-0.003
725.00	0.001
724.50	-0.002
724.00	0.001
723.50	0.001
723.00	-0.002
722.50	-0.003
722.00	-0.001
721.50	0.000
721.00	-0.002
720.50	0.003
720.00	-0.002
719.50	-0.004
719.00	-0.002
718.50	0.001
718.00	0.000
717.50	0.000
717.00	-0.004
716.50	0.000
716.00	-0.003
715.50	-0.002
715.00	0.001
714.50	-0.001
714.00	-0.001
713.50	0.000
713.00	-0.003
712.50	-0.001
712.00	-0.004
711.50	-0.002
711.00	-0.002
710.50	0.001
710.00	0.001
709.50	0.000
709.00	-0.004
708.50	-0.002
708.00	-0.001
707.50	-0.002
707.00	0.000
706.50	-0.001
706.00	-0.005
705.50	0.001
705.00	-0.003
704.50	0.001
704.00	0.003
703.50	0.000
703.00	-0.001
702.50	-0.002
702.00	0.003
701.50	0.000
701.00	0.000
700.50	-0.001
700.00	-0.004
699.50	0.001
699.00	0.001
698.50	0.002
698.00	-0.001
697.50	-0.001
697.00	0.000
696.50	-0.003
696.00	-0.001
695.50	0.000
695.00	-0.003
694.50	-0.001
694.00	0.002
693.50	-0.001
693.00	-0.003
692.50	-0.004
692.00	0.000
691.50	-0.001
691.00	0.002
690.50	-0.002
690.00	0.002
689.50	-0.002
689.00	0.000
688.50	-0.002
688.00	0.001
687.50	-0.001
687.00	-0.003
686.50	0.001
686.00	0.001
685.50	-0.002
685.00	-0.001
684.50	-0.003
684.00	0.000
683.50	0.000
683.00	-0.003
682.50	0.000
682.00	0.000
681.50	-0.002
681.00	0.002
680.50	-0.002
680.00	0.002
679.50	-0.004
679.00	-0.001
678.50	-0.001
678.00	-0.002
677.50	0.000
677.00	0.000
676.50	-0.003
676.00	-0.002
675.50	0.000
675.00	0.001
674.50	-0.002
674.00	0.000
673.50	-0.002
673.00	-0.003
672.50	-0.001
672.00	0.003
671.50	0.000
671.00	0.000
670.50	0.003
670.00	0.002
669.50	-0.002
669.00	0.001
668.50	0.001
668.00	0.000
667.50	0.000
667.00	0.000
666.50	-0.003
666.00	0.000
665.50	-0.002
665.00	0.000
664.50	0.001
664.00	-0.002
663.50	-0.001
663.00	-0.003
662.50	0.001
662.00	-0.002
661.50	-0.003
661.00	0.001
660.50	0.002
660.00	-0.002
659.50	-0.003
659.00	0.001
658.50	-0.003
658.00	0.001
657.50	0.000
657.00	0.001
656.50	0.001
656.00	0.001
655.50	-0.001
655.00	0.000
654.50	0.000
654.00	0.001
653.50	-0.002
653.00	0.000
652.50	-0.001
652.00	-0.001
651.50	-0.003
651.00	-0.002
650.50	0.000
650.00	-0.001
649.50	-0.001
649.00	0.000
648.50	0.000
648.00	0.000
647.50	-0.001
647.00	-0.001
646.50	0.000
646.00	0.000
645.50	-0.002
645.00	0.000
644.50	-0.002
644.00	-0.001
643.50	0.000
643.00	-0.002
642.50	-0.002
642.00	0.000
641.50	0.001
641.00	-0.001
640.50	-0.001
640.00	0.000
639.50	0.000
639.00	0.000
638.50	0.001
638.00	0.000
637.50	0.002
637.00	-0.002
636.50	-0.002
636.00	-0.002
635.50	0.002
635.00	-0.001
634.50	-0.002
634.00	0.002
633.50	0.003
633.00	-0.001
632.50	0.000
632.00	-0.001
631.50	-0.002
631.00	0.002
630.50	0.002
630.00	0.001
629.50	-0.004
629.00	-0.002
628.50	0.000
628.00	0.000
627.50	-0.002
627.00	-0.001
626.50	0.000
626.00	-0.001
625.50	-0.003
625.00	-0.003
624.50	-0.001
624.00	0.000
623.50	-0.001
623.00	0.000
622.50	-0.001
622.00	-0.001
621.50	-0.002
621.00	-0.001
620.50	0.000
620.00	-0.001
619.50	0.000
619.00	0.001
618.50	0.000
618.00	0.002
617.50	0.002
617.00	0.001
616.50	-0.001
616.00	-0.001
615.50	0.001
615.00	0.000
614.50	-0.001
614.00	0.003
613.50	0.000
613.00	0.000
612.50	-0.002
612.00	0.000
611.50	0.000
611.00	0.000
610.50	-0.001
610.00	-0.002
609.50	0.002
609.00	0.000
608.50	0.001
608.00	-0.004
607.50	-0.001
607.00	-0.001
606.50	0.001
606.00	0.003
605.50	0.000
605.00	0.003
604.50	-0.006
604.00	-0.001
603.50	-0.003
603.00	-0.001
602.50	0.000
602.00	0.000
601.50	-0.003
601.00	0.001
600.50	-0.003
600.00	-0.004
599.50	-0.003
599.00	-0.001
598.50	0.001
598.00	0.003
597.50	-0.002
597.00	0.000
596.50	-0.001
596.00	-0.001
595.50	0.001
595.00	-0.005
594.50	0.000
594.00	-0.008
593.50	0.002
593.00	-0.002
592.50	0.000
592.00	0.003
591.50	-0.003
591.00	-0.002
590.50	-0.001
590.00	0.000
589.50	-0.003
589.00	-0.002
588.50	0.001
588.00	-0.003
587.50	0.000
587.00	-0.002
586.50	-0.001
586.00	-0.003
585.50	0.001
585.00	-0.003
584.50	-0.001
584.00	-0.005
583.50	0.001
583.00	0.000
582.50	-0.002
582.00	-0.003
581.50	-0.003
581.00	0.000
580.50	-0.001
580.00	-0.002
579.50	0.001
579.00	-0.003
578.50	0.001
578.00	0.001
577.50	-0.001
577.00	0.001
576.50	-0.003
576.00	0.001
575.50	0.000
575.00	-0.003
574.50	-0.003
574.00	-0.002
573.50	0.000
573.00	-0.004
572.50	-0.001
572.00	-0.001
571.50	0.001
571.00	-0.001
570.50	0.001
570.00	0.000
569.50	0.001
569.00	0.001
568.50	-0.002
568.00	0.000
567.50	-0.003
567.00	0.003
566.50	0.001
566.00	0.000
565.50	-0.001
565.00	-0.002
564.50	0.000
564.00	0.002
563.50	-0.001
563.00	-0.001
562.50	-0.002
562.00	0.001
561.50	0.003
561.00	0.001
560.50	0.001
560.00	-0.002
559.50	-0.001
559.00	0.000
558.50	0.000
558.00	-0.001
557.50	0.001
557.00	-0.001
556.50	0.000
556.00	0.001
555.50	-0.002
555.00	0.001
554.50	-0.002
554.00	0.000
553.50	-0.001
553.00	-0.001
552.50	0.000
552.00	-0.001
551.50	0.000
551.00	-0.003
550.50	-0.002
550.00	0.002
549.50	0.000
549.00	0.000
548.50	0.000
548.00	-0.001
547.50	-0.002
547.00	-0.001
546.50	-0.003
546.00	-0.001
545.50	0.001
545.00	0.000
544.50	-0.002
544.00	-0.003
543.50	-0.003
543.00	0.000
542.50	0.000
542.00	0.002
541.50	0.000
541.00	-0.001
540.50	0.001
540.00	0.000
539.50	-0.001
539.00	0.000
538.50	-0.002
538.00	-0.001
537.50	0.001
537.00	-0.002
536.50	-0.001
536.00	0.001
535.50	0.000
535.00	0.000
534.50	0.000
534.00	0.001
533.50	0.001
533.00	0.000
532.50	0.000
532.00	-0.001
531.50	0.000
531.00	-0.002
530.50	0.001
530.00	0.000
529.50	-0.001
529.00	-0.002
528.50	-0.001
528.00	-0.001
527.50	0.001
527.00	0.001
526.50	0.001
526.00	0.000
525.50	0.000
525.00	0.000
524.50	-0.001
524.00	-0.001
523.50	0.000
523.00	0.000
522.50	0.000
522.00	-0.002
521.50	-0.001
521.00	0.002
520.50	-0.002
520.00	-0.002
519.50	0.001
519.00	-0.001
518.50	-0.002
518.00	-0.001
517.50	0.000
517.00	-0.002
516.50	-0.001
516.00	0.001
515.50	-0.002
515.00	0.000
514.50	-0.002
514.00	0.000
513.50	0.000
513.00	-0.002
512.50	0.000
512.00	-0.001
511.50	-0.003
511.00	0.001
510.50	0.000
510.00	0.000
509.50	-0.002
509.00	-0.002
508.50	0.000
508.00	-0.001
507.50	-0.001
507.00	0.002
506.50	0.000
506.00	-0.001
505.50	0.001
505.00	0.002
504.50	0.000
504.00	-0.002
503.50	-0.001
503.00	-0.001
502.50	-0.001
502.00	0.000
501.50	0.000
501.00	0.000
500.50	0.001
500.00	0.001
499.50	-0.001
499.00	-0.001
498.50	0.000
498.00	-0.001
497.50	0.000
497.00	0.000
496.50	0.000
496.00	-0.003
495.50	-0.001
495.00	0.001
494.50	-0.001
494.00	0.001
493.50	0.002
493.00	0.000
492.50	-0.002
492.00	-0.001
491.50	0.003
491.00	0.000
490.50	-0.001
490.00	0.000
489.50	-0.002
489.00	0.002
488.50	0.000
488.00	-0.001
487.50	-0.001
487.00	-0.002
486.50	0.002
486.00	0.000
485.50	0.001
485.00	0.001
484.50	0.000
484.00	-0.002
483.50	-0.001
483.00	-0.001
482.50	-0.001
482.00	0.000
481.50	-0.004
481.00	-0.002
480.50	-0.001
480.00	0.001
479.50	-0.001
479.00	-0.001
478.50	-0.001
478.00	0.000
477.50	-0.002
477.00	-0.003
476.50	0.000
476.00	0.001
475.50	0.000
475.00	-0.001
474.50	-0.001
474.00	0.000
473.50	0.000
473.00	-0.001
472.50	-0.002
472.00	-0.003
471.50	0.002
471.00	0.000
470.50	0.001
470.00	-0.001
469.50	-0.001
469.00	-0.001
468.50	-0.001
468.00	0.001
467.50	-0.002
467.00	0.001
466.50	0.000
466.00	-0.003
465.50	0.001
465.00	0.001
464.50	0.001
464.00	-0.002
463.50	0.000
463.00	0.001
462.50	-0.003
462.00	-0.003
461.50	-0.003
461.00	0.000
460.50	-0.001
460.00	0.000
459.50	0.001
459.00	-0.002
458.50	0.000
458.00	-0.001
457.50	-0.001
457.00	0.001
456.50	0.001
456.00	-0.001
455.50	-0.001
455.00	-0.003
454.50	-0.001
454.00	0.001
453.50	0.001
453.00	-0.001
452.50	-0.001
452.00	-0.001
451.50	0.003
451.00	0.001
450.50	-0.001
450.00	-0.001
449.50	0.000
449.00	-0.001
448.50	-0.002
448.00	-0.004
447.50	0.001
447.00	0.001
446.50	0.003
446.00	0.000
445.50	-0.001
445.00	-0.003
444.50	0.001
444.00	0.001
443.50	-0.001
443.00	0.000
442.50	-0.003
442.00	-0.001
441.50	0.002
441.00	0.001
440.50	-0.002
440.00	-0.003
439.50	-0.002
439.00	0.002
438.50	0.003
438.00	0.000
437.50	-0.001
437.00	0.001
436.50	-0.002
436.00	0.000
435.50	0.001
435.00	0.001
434.50	0.000
434.00	-0.001
433.50	-0.001
433.00	0.000
432.50	0.002
432.00	0.000
431.50	-0.002
431.00	-0.001
430.50	-0.001
430.00	-0.002
429.50	0.002
429.00	-0.001
428.50	0.000
428.00	-0.001
427.50	-0.001
427.00	-0.002
426.50	-0.001
426.00	-0.003
425.50	0.001
425.00	-0.002
424.50	-0.001
424.00	0.003
423.50	0.004
423.00	0.001
422.50	-0.004
422.00	-0.001
421.50	0.002
421.00	-0.002
420.50	-0.005
420.00	0.003
419.50	0.000
419.00	0.002
418.50	0.000
418.00	-0.001
417.50	0.001
417.00	0.004
416.50	0.000
416.00	-0.001
415.50	0.002
415.00	0.000
414.50	0.000
414.00	-0.002
413.50	-0.001
413.00	0.002
412.50	0.001
412.00	0.001
411.50	0.002
411.00	0.002
410.50	-0.001
410.00	0.000
409.50	0.003
409.00	-0.001
408.50	0.000
408.00	-0.002
407.50	0.001
407.00	-0.002
406.50	0.001
406.00	0.003
405.50	0.003
405.00	0.000
404.50	0.001
404.00	0.004
403.50	0.003
403.00	0.002
402.50	0.000
402.00	-0.002
401.50	0.002
401.00	0.000
400.50	0.003
400.00	-0.001
399.50	0.001
399.00	0.000
398.50	-0.003
398.00	0.003
397.50	0.004
397.00	-0.001
396.50	0.001
396.00	-0.002
395.50	-0.001
395.00	-0.002
394.50	-0.001
394.00	0.000
393.50	0.001
393.00	-0.002
392.50	0.001
392.00	-0.002
391.50	0.000
391.00	-0.002
390.50	0.004
390.00	0.000
389.50	0.001
389.00	0.000
388.50	0.002
388.00	-0.001
387.50	0.005
387.00	-0.002
386.50	0.002
386.00	-0.002
385.50	0.001
385.00	0.000
384.50	0.001
384.00	0.000
383.50	-0.001
383.00	0.001
382.50	0.000
382.00	-0.002
381.50	-0.003
381.00	0.004
380.50	0.003
380.00	-0.003
379.50	0.003
379.00	0.001
378.50	-0.001
378.00	-0.003
377.50	-0.006
377.00	0.001
376.50	0.000
376.00	0.009
375.50	0.000
375.00	0.004
374.50	-0.001
374.00	0.004
373.50	0.003
373.00	-0.002
372.50	0.003
372.00	0.002
371.50	0.001
371.00	0.004
370.50	0.004
370.00	0.004
369.50	-0.003
369.00	0.002
368.50	0.001
368.00	0.001
367.50	0.000
367.00	-0.001
366.50	0.003
366.00	-0.001
365.50	0.001
365.00	0.006
364.50	0.001
364.00	-0.001
363.50	0.004
363.00	-0.001
362.50	0.002
362.00	0.005
361.50	0.002
361.00	-0.001
360.50	0.003
360.00	0.000
359.50	0.000
359.00	0.001
358.50	0.005
358.00	0.000
357.50	0.003
357.00	0.004
356.50	0.000
356.00	-0.002
355.50	0.002
355.00	0.005
354.50	-0.001
354.00	0.003
353.50	0.004
353.00	0.000
352.50	-0.002
352.00	0.003
351.50	0.006
351.00	0.007
350.50	0.003
350.00	0.003
349.50	0.003
349.00	0.001
348.50	0.000
348.00	0.006
347.50	0.000
347.00	0.000
346.50	0.006
346.00	0.005
345.50	0.005
345.00	0.004
344.50	0.001
344.00	0.003
343.50	0.002
343.00	-0.001
342.50	0.006
342.00	0.003
341.50	-0.001
341.00	0.009
340.50	0.006
340.00	-0.001
339.50	0.003
339.00	0.008
338.50	0.007
338.00	0.003
337.50	0.006
337.00	0.001
336.50	0.002
336.00	0.000
335.50	0.000
335.00	-0.004
334.50	0.010
334.00	0.003
333.50	0.008
333.00	0.004
332.50	-0.005
332.00	0.006
331.50	0.003
331.00	-0.004
330.50	0.007
330.00	0.007
329.50	-0.002
329.00	0.003
328.50	-0.003
328.00	0.001
327.50	-0.001
327.00	-0.010
326.50	0.005
326.00	0.006
325.50	0.003
325.00	-0.005
324.50	-0.001
324.00	0.001
323.50	0.006
323.00	0.005
322.50	0.008
322.00	0.003
321.50	0.006
321.00	0.005
320.50	-0.002
320.00	0.001
319.50	0.007
319.00	0.006
318.50	0.004
318.00	0.003
317.50	0.003
317.00	-0.002
316.50	0.007
316.00	0.003
315.50	-0.002
315.00	0.000
314.50	0.004
314.00	0.005
313.50	0.007
313.00	0.005
312.50	0.005
312.00	0.005
311.50	0.001
311.00	0.008
310.50	0.001
310.00	0.001
309.50	-0.002
309.00	0.004
308.50	-0.002
308.00	0.007
307.50	0.000
307.00	-0.001
306.50	0.005
306.00	0.006
305.50	0.006
305.00	0.006
304.50	0.002
304.00	0.004
303.50	0.005
303.00	0.001
302.50	0.006
302.00	0.005
301.50	0.006
301.00	0.004
300.50	0.003
300.00	0.000
299.50	0.002
299.00	0.005
298.50	0.003
298.00	0.005
297.50	0.004
297.00	0.002
296.50	0.004
296.00	0.002
295.50	0.006
295.00	0.005
294.50	0.008
294.00	0.007
293.50	0.007
293.00	0.010
292.50	0.006
292.00	0.008
291.50	0.005
291.00	0.003
290.50	0.008
290.00	0.011
289.50	0.010
289.00	0.009
288.50	0.015
288.00	0.014
287.50	0.013
287.00	0.017
286.50	0.021
286.00	0.019
285.50	0.021
285.00	0.023
284.50	0.025
284.00	0.023
283.50	0.026
283.00	0.031
282.50	0.031
282.00	0.032
281.50	0.036
281.00	0.032
280.50	0.033
280.00	0.033
279.50	0.035
279.00	0.032
278.50	0.036
278.00	0.036
277.50	0.038
277.00	0.036
276.50	0.033
276.00	0.039
275.50	0.036
275.00	0.038
274.50	0.038
274.00	0.038
273.50	0.036
273.00	0.040
272.50	0.038
272.00	0.036
271.50	0.037
271.00	0.039
270.50	0.035
270.00	0.038
269.50	0.039
269.00	0.037
268.50	0.036
268.00	0.038
267.50	0.037
267.00	0.036
266.50	0.033
266.00	0.031
265.50	0.034
265.00	0.033
264.50	0.035
264.00	0.030
263.50	0.033
263.00	0.033
262.50	0.033
262.00	0.033
261.50	0.035
261.00	0.032
260.50	0.034
260.00	0.031
259.50	0.032
259.00	0.032
258.50	0.036
258.00	0.033
257.50	0.035
257.00	0.033
256.50	0.034
256.00	0.032
255.50	0.036
255.00	0.036
254.50	0.037
254.00	0.036
253.50	0.041
253.00	0.041
252.50	0.043
252.00	0.042
251.50	0.044
251.00	0.045
250.50	0.046
250.00	0.049
249.50	0.048
249.00	0.053
248.50	0.052
248.00	0.054
247.50	0.057
247.00	0.065
246.50	0.062
246.00	0.066
245.50	0.066
245.00	0.070
244.50	0.074
244.00	0.076
243.50	0.084
243.00	0.085
242.50	0.093
242.00	0.098
241.50	0.102
241.00	0.108
240.50	0.111
240.00	0.113
239.50	0.125
239.00	0.129
238.50	0.136
238.00	0.141
237.50	0.148
237.00	0.153
236.50	0.161
236.00	0.166
235.50	0.169
235.00	0.179
234.50	0.184
234.00	0.190
233.50	0.201
233.00	0.203
232.50	0.215
232.00	0.217
231.50	0.226
231.00	0.232
230.50	0.239
230.00	0.251
229.50	0.258
229.00	0.264
228.50	0.272
228.00	0.281
227.50	0.292
227.00	0.303
226.50	0.306
226.00	0.318
225.50	0.332
225.00	0.345
224.50	0.354
224.00	0.361
223.50	0.373
223.00	0.381
222.50	0.386
222.00	0.396
221.50	0.402
221.00	0.406
220.50	0.414
220.00	0.419
219.50	0.429
219.00	0.432
218.50	0.440
218.00	0.441
217.50	0.444
217.00	0.449
216.50	0.456
216.00	0.454
215.50	0.459
215.00	0.463
214.50	0.462
214.00	0.475
213.50	0.481
213.00	0.479
212.50	0.489
212.00	0.499
211.50	0.506
211.00	0.521
210.50	0.536
210.00	0.561
209.50	0.576
209.00	0.606
208.50	0.625
208.00	0.681
207.50	0.711
207.00	0.751
206.50	0.805
206.00	0.894
205.50	0.938
205.00	1.009
204.50	1.073
204.00	1.167
203.50	1.222
203.00	1.280
202.50	1.376
202.00	1.455
201.50	1.531
201.00	1.600
200.50	1.607
200.00	1.691

