Sample:	'UV-20260820-1-DBP_0.000075(MeCN)
File name:	UV-20260820-1-DPB_0.000075(MeCN).UDS
Run Date:	'15:02:47, 08/13/2026
Operator:	DELL
Comment:	'

Instrument
Model:	U-3900H Spectrophotometer
Serial Number:	'2192-001
ROM Version:	2J25300 07

Instrument Parameters
Measurement Type:	Wavelength Scan
Data Mode:	Abs
Start Wavelength:	800.00 nm
End Wavelength:	200.00 nm
Scan Speed:	300 nm/min
Sampling Interval:	0.50 nm
Delay:	0 s
Cycle Time:	0.1 min
Replicates:	1
Auto Zero before each run:	Off
Slit Width:	0.5 nm
PMT Voltage:	Auto
Lamp Change Mode:	Auto
Lamp Change Wavelength:	325.00 nm
Baseline Correction:	User 1(test_1)
High Resolution:	On
D2 Lamp:	On
WI Lamp:	On
R/S Reverse:	Off
Path Correct:	On
Path Length:	10.0 mm

Data Points
nm	Abs
800.00	0.000
799.50	-0.001
799.00	0.001
798.50	0.003
798.00	-0.002
797.50	0.006
797.00	0.000
796.50	-0.001
796.00	0.000
795.50	0.001
795.00	-0.003
794.50	0.003
794.00	0.000
793.50	-0.003
793.00	0.001
792.50	0.003
792.00	-0.001
791.50	-0.004
791.00	0.001
790.50	0.004
790.00	0.002
789.50	0.001
789.00	0.004
788.50	-0.005
788.00	0.004
787.50	-0.002
787.00	0.003
786.50	0.003
786.00	-0.001
785.50	0.002
785.00	0.001
784.50	-0.002
784.00	0.003
783.50	0.003
783.00	0.002
782.50	0.000
782.00	0.000
781.50	0.004
781.00	-0.002
780.50	-0.002
780.00	-0.001
779.50	0.002
779.00	0.004
778.50	-0.002
778.00	-0.003
777.50	-0.002
777.00	0.004
776.50	0.003
776.00	-0.004
775.50	0.002
775.00	0.000
774.50	-0.004
774.00	-0.001
773.50	-0.003
773.00	-0.005
772.50	0.007
772.00	0.004
771.50	0.000
771.00	-0.001
770.50	0.002
770.00	0.006
769.50	0.000
769.00	-0.002
768.50	-0.004
768.00	-0.001
767.50	-0.004
767.00	-0.006
766.50	-0.001
766.00	-0.002
765.50	-0.004
765.00	0.001
764.50	-0.004
764.00	0.001
763.50	0.002
763.00	0.004
762.50	0.000
762.00	-0.001
761.50	0.001
761.00	-0.003
760.50	-0.004
760.00	0.000
759.50	0.000
759.00	0.003
758.50	-0.001
758.00	0.000
757.50	0.001
757.00	0.003
756.50	-0.001
756.00	0.002
755.50	0.000
755.00	0.000
754.50	0.002
754.00	0.004
753.50	-0.004
753.00	0.002
752.50	0.003
752.00	-0.002
751.50	0.000
751.00	0.000
750.50	-0.002
750.00	0.002
749.50	0.001
749.00	-0.003
748.50	0.000
748.00	0.003
747.50	0.002
747.00	-0.002
746.50	0.000
746.00	-0.001
745.50	0.000
745.00	0.001
744.50	0.002
744.00	-0.001
743.50	-0.002
743.00	0.001
742.50	0.000
742.00	0.002
741.50	0.002
741.00	-0.001
740.50	-0.003
740.00	-0.001
739.50	0.002
739.00	0.000
738.50	-0.001
738.00	0.000
737.50	0.000
737.00	0.000
736.50	0.001
736.00	-0.004
735.50	0.001
735.00	0.000
734.50	0.000
734.00	0.000
733.50	-0.001
733.00	-0.003
732.50	0.005
732.00	0.001
731.50	0.000
731.00	0.003
730.50	0.002
730.00	0.002
729.50	-0.002
729.00	0.000
728.50	0.001
728.00	0.003
727.50	0.003
727.00	0.003
726.50	0.004
726.00	-0.003
725.50	-0.004
725.00	0.001
724.50	-0.002
724.00	0.001
723.50	0.000
723.00	0.001
722.50	0.000
722.00	-0.001
721.50	-0.001
721.00	-0.004
720.50	0.002
720.00	-0.005
719.50	0.001
719.00	-0.002
718.50	0.001
718.00	-0.001
717.50	0.002
717.00	-0.001
716.50	0.003
716.00	0.000
715.50	0.000
715.00	-0.001
714.50	0.001
714.00	-0.003
713.50	0.001
713.00	-0.002
712.50	0.000
712.00	-0.001
711.50	0.001
711.00	-0.001
710.50	0.000
710.00	-0.001
709.50	0.002
709.00	0.000
708.50	0.001
708.00	0.002
707.50	-0.001
707.00	0.000
706.50	-0.001
706.00	-0.004
705.50	0.003
705.00	0.000
704.50	0.002
704.00	0.003
703.50	-0.002
703.00	0.003
702.50	0.000
702.00	0.002
701.50	0.002
701.00	0.000
700.50	0.000
700.00	0.000
699.50	0.003
699.00	-0.003
698.50	0.001
698.00	0.000
697.50	0.002
697.00	-0.001
696.50	-0.002
696.00	-0.002
695.50	0.000
695.00	0.002
694.50	0.002
694.00	0.002
693.50	0.001
693.00	-0.002
692.50	-0.002
692.00	-0.001
691.50	-0.002
691.00	0.000
690.50	-0.001
690.00	0.003
689.50	0.001
689.00	0.002
688.50	0.003
688.00	0.002
687.50	-0.002
687.00	-0.001
686.50	0.000
686.00	0.001
685.50	-0.001
685.00	0.000
684.50	0.000
684.00	-0.001
683.50	0.000
683.00	-0.004
682.50	-0.001
682.00	-0.001
681.50	0.000
681.00	0.001
680.50	0.002
680.00	0.000
679.50	-0.001
679.00	-0.002
678.50	0.000
678.00	-0.002
677.50	0.000
677.00	-0.002
676.50	-0.003
676.00	-0.002
675.50	-0.002
675.00	-0.001
674.50	-0.001
674.00	0.002
673.50	-0.003
673.00	0.000
672.50	0.000
672.00	0.002
671.50	0.001
671.00	0.002
670.50	0.003
670.00	0.002
669.50	-0.002
669.00	0.002
668.50	0.001
668.00	0.001
667.50	-0.001
667.00	0.002
666.50	-0.002
666.00	0.000
665.50	0.000
665.00	-0.001
664.50	0.003
664.00	-0.001
663.50	-0.002
663.00	0.000
662.50	0.001
662.00	0.000
661.50	-0.001
661.00	0.005
660.50	0.000
660.00	0.001
659.50	-0.002
659.00	0.002
658.50	-0.002
658.00	-0.001
657.50	-0.001
657.00	0.002
656.50	0.001
656.00	0.001
655.50	-0.002
655.00	0.000
654.50	-0.001
654.00	0.001
653.50	0.002
653.00	0.000
652.50	0.001
652.00	0.000
651.50	-0.003
651.00	-0.001
650.50	-0.002
650.00	0.000
649.50	0.001
649.00	0.000
648.50	0.000
648.00	0.000
647.50	0.001
647.00	0.000
646.50	-0.001
646.00	-0.001
645.50	-0.001
645.00	0.000
644.50	-0.001
644.00	0.001
643.50	-0.001
643.00	0.001
642.50	0.001
642.00	0.001
641.50	0.001
641.00	-0.003
640.50	0.003
640.00	0.002
639.50	0.000
639.00	0.001
638.50	0.002
638.00	0.002
637.50	0.000
637.00	0.001
636.50	0.003
636.00	-0.003
635.50	-0.001
635.00	0.001
634.50	-0.001
634.00	0.000
633.50	0.001
633.00	0.000
632.50	0.001
632.00	-0.001
631.50	0.000
631.00	0.002
630.50	0.000
630.00	-0.002
629.50	-0.001
629.00	0.001
628.50	0.001
628.00	0.001
627.50	-0.002
627.00	-0.002
626.50	0.001
626.00	0.001
625.50	0.000
625.00	-0.001
624.50	0.000
624.00	0.000
623.50	-0.002
623.00	0.001
622.50	-0.002
622.00	0.000
621.50	0.001
621.00	0.001
620.50	0.000
620.00	0.001
619.50	-0.001
619.00	0.001
618.50	0.000
618.00	0.003
617.50	0.002
617.00	0.000
616.50	-0.001
616.00	0.001
615.50	0.002
615.00	0.002
614.50	0.001
614.00	0.003
613.50	0.000
613.00	0.002
612.50	0.000
612.00	0.002
611.50	0.000
611.00	0.003
610.50	0.000
610.00	-0.004
609.50	0.002
609.00	-0.001
608.50	0.002
608.00	-0.002
607.50	-0.002
607.00	-0.001
606.50	0.001
606.00	0.002
605.50	-0.002
605.00	0.000
604.50	-0.003
604.00	0.002
603.50	-0.001
603.00	-0.003
602.50	0.001
602.00	0.001
601.50	-0.001
601.00	-0.001
600.50	-0.005
600.00	-0.001
599.50	-0.001
599.00	-0.003
598.50	0.004
598.00	0.004
597.50	0.000
597.00	0.000
596.50	-0.002
596.00	0.000
595.50	0.002
595.00	0.001
594.50	-0.001
594.00	-0.007
593.50	-0.002
593.00	-0.001
592.50	0.000
592.00	0.002
591.50	0.002
591.00	-0.001
590.50	-0.003
590.00	0.000
589.50	0.000
589.00	-0.001
588.50	0.001
588.00	-0.002
587.50	0.000
587.00	-0.002
586.50	0.002
586.00	-0.002
585.50	0.002
585.00	0.000
584.50	-0.002
584.00	-0.002
583.50	0.000
583.00	0.001
582.50	-0.002
582.00	-0.002
581.50	-0.001
581.00	0.001
580.50	0.002
580.00	-0.002
579.50	0.003
579.00	0.000
578.50	0.002
578.00	0.000
577.50	-0.002
577.00	0.000
576.50	-0.002
576.00	-0.001
575.50	-0.001
575.00	-0.002
574.50	0.000
574.00	0.002
573.50	-0.002
573.00	0.000
572.50	-0.001
572.00	0.000
571.50	0.002
571.00	-0.001
570.50	0.002
570.00	0.001
569.50	-0.001
569.00	-0.002
568.50	-0.002
568.00	0.000
567.50	-0.002
567.00	0.003
566.50	0.002
566.00	0.001
565.50	0.000
565.00	0.000
564.50	-0.001
564.00	0.001
563.50	-0.001
563.00	0.001
562.50	-0.001
562.00	0.001
561.50	0.000
561.00	0.000
560.50	0.001
560.00	0.002
559.50	-0.002
559.00	-0.001
558.50	0.000
558.00	-0.001
557.50	0.001
557.00	0.001
556.50	0.000
556.00	-0.001
555.50	-0.002
555.00	0.000
554.50	-0.001
554.00	-0.002
553.50	0.000
553.00	0.001
552.50	-0.003
552.00	0.000
551.50	0.000
551.00	-0.002
550.50	0.000
550.00	-0.002
549.50	-0.002
549.00	0.002
548.50	0.001
548.00	-0.001
547.50	-0.002
547.00	0.000
546.50	-0.003
546.00	-0.003
545.50	-0.002
545.00	0.001
544.50	0.000
544.00	-0.002
543.50	0.000
543.00	0.002
542.50	0.000
542.00	0.000
541.50	0.000
541.00	-0.001
540.50	0.002
540.00	0.001
539.50	0.001
539.00	0.000
538.50	-0.001
538.00	0.000
537.50	0.002
537.00	-0.001
536.50	0.000
536.00	0.002
535.50	0.000
535.00	0.000
534.50	0.000
534.00	0.001
533.50	-0.001
533.00	-0.001
532.50	-0.002
532.00	-0.001
531.50	0.000
531.00	-0.001
530.50	0.001
530.00	0.001
529.50	-0.001
529.00	-0.002
528.50	-0.001
528.00	-0.001
527.50	0.001
527.00	0.001
526.50	0.000
526.00	0.001
525.50	0.000
525.00	0.000
524.50	0.000
524.00	0.000
523.50	-0.002
523.00	0.002
522.50	0.000
522.00	-0.001
521.50	0.000
521.00	0.002
520.50	-0.002
520.00	-0.002
519.50	0.002
519.00	-0.001
518.50	-0.002
518.00	0.000
517.50	-0.001
517.00	0.000
516.50	0.002
516.00	0.000
515.50	-0.001
515.00	-0.001
514.50	-0.001
514.00	0.001
513.50	-0.001
513.00	-0.002
512.50	0.000
512.00	-0.001
511.50	0.000
511.00	0.000
510.50	-0.002
510.00	0.000
509.50	-0.002
509.00	-0.003
508.50	0.001
508.00	0.000
507.50	-0.001
507.00	-0.001
506.50	0.001
506.00	-0.001
505.50	0.000
505.00	0.001
504.50	-0.001
504.00	0.000
503.50	0.001
503.00	-0.002
502.50	0.000
502.00	-0.001
501.50	0.002
501.00	0.002
500.50	-0.003
500.00	0.002
499.50	0.001
499.00	0.001
498.50	0.000
498.00	-0.001
497.50	-0.001
497.00	-0.001
496.50	0.000
496.00	-0.001
495.50	0.000
495.00	0.002
494.50	-0.001
494.00	0.001
493.50	0.001
493.00	-0.001
492.50	-0.002
492.00	0.000
491.50	-0.001
491.00	0.001
490.50	0.000
490.00	0.000
489.50	-0.003
489.00	-0.001
488.50	0.002
488.00	-0.001
487.50	-0.001
487.00	-0.001
486.50	0.000
486.00	0.001
485.50	0.000
485.00	0.000
484.50	0.000
484.00	0.001
483.50	0.000
483.00	0.000
482.50	0.001
482.00	0.000
481.50	-0.002
481.00	-0.002
480.50	-0.003
480.00	0.001
479.50	0.001
479.00	-0.001
478.50	-0.002
478.00	-0.002
477.50	0.001
477.00	-0.002
476.50	0.001
476.00	0.001
475.50	-0.001
475.00	0.001
474.50	0.001
474.00	0.001
473.50	-0.002
473.00	-0.002
472.50	0.000
472.00	0.000
471.50	0.002
471.00	0.000
470.50	-0.003
470.00	-0.001
469.50	0.000
469.00	0.000
468.50	0.001
468.00	0.002
467.50	0.000
467.00	0.001
466.50	-0.001
466.00	-0.005
465.50	0.002
465.00	-0.002
464.50	0.001
464.00	0.001
463.50	-0.001
463.00	0.001
462.50	0.000
462.00	-0.001
461.50	-0.005
461.00	0.001
460.50	0.000
460.00	0.001
459.50	0.001
459.00	-0.001
458.50	-0.002
458.00	0.002
457.50	-0.002
457.00	-0.001
456.50	0.001
456.00	-0.001
455.50	0.001
455.00	-0.003
454.50	-0.002
454.00	-0.001
453.50	0.000
453.00	0.000
452.50	-0.003
452.00	0.001
451.50	0.002
451.00	-0.001
450.50	0.001
450.00	0.001
449.50	-0.001
449.00	0.001
448.50	-0.002
448.00	-0.001
447.50	0.000
447.00	0.003
446.50	0.000
446.00	-0.002
445.50	0.001
445.00	-0.005
444.50	0.002
444.00	0.001
443.50	0.001
443.00	0.000
442.50	-0.002
442.00	0.002
441.50	-0.002
441.00	-0.001
440.50	-0.001
440.00	-0.002
439.50	0.000
439.00	0.002
438.50	0.004
438.00	0.001
437.50	-0.002
437.00	-0.001
436.50	-0.002
436.00	0.001
435.50	0.004
435.00	0.000
434.50	0.002
434.00	-0.003
433.50	-0.001
433.00	-0.002
432.50	0.001
432.00	0.001
431.50	0.000
431.00	0.002
430.50	-0.002
430.00	-0.002
429.50	0.001
429.00	-0.001
428.50	0.002
428.00	0.000
427.50	0.000
427.00	-0.004
426.50	0.000
426.00	-0.005
425.50	-0.001
425.00	0.001
424.50	-0.002
424.00	0.003
423.50	0.001
423.00	0.001
422.50	-0.001
422.00	-0.002
421.50	0.001
421.00	-0.002
420.50	-0.001
420.00	0.002
419.50	0.000
419.00	0.001
418.50	0.003
418.00	0.001
417.50	0.002
417.00	0.005
416.50	-0.001
416.00	-0.002
415.50	0.002
415.00	-0.003
414.50	-0.003
414.00	0.001
413.50	0.002
413.00	0.003
412.50	0.000
412.00	-0.002
411.50	0.001
411.00	-0.001
410.50	-0.003
410.00	-0.001
409.50	0.000
409.00	0.002
408.50	0.000
408.00	-0.003
407.50	0.000
407.00	0.000
406.50	-0.002
406.00	0.002
405.50	0.002
405.00	0.001
404.50	0.001
404.00	0.000
403.50	0.001
403.00	0.005
402.50	-0.002
402.00	0.001
401.50	0.002
401.00	0.001
400.50	0.003
400.00	0.000
399.50	0.001
399.00	0.001
398.50	-0.003
398.00	0.005
397.50	0.002
397.00	0.002
396.50	0.000
396.00	0.000
395.50	-0.003
395.00	0.001
394.50	-0.003
394.00	0.002
393.50	0.002
393.00	-0.001
392.50	-0.001
392.00	0.002
391.50	0.003
391.00	-0.005
390.50	0.001
390.00	-0.001
389.50	-0.002
389.00	0.000
388.50	0.000
388.00	0.000
387.50	0.004
387.00	0.001
386.50	0.001
386.00	-0.004
385.50	-0.001
385.00	-0.006
384.50	0.002
384.00	-0.001
383.50	-0.003
383.00	-0.002
382.50	-0.001
382.00	-0.001
381.50	-0.002
381.00	0.003
380.50	0.004
380.00	0.001
379.50	-0.001
379.00	0.002
378.50	0.003
378.00	-0.001
377.50	-0.003
377.00	0.005
376.50	-0.001
376.00	0.002
375.50	0.001
375.00	0.002
374.50	0.002
374.00	0.001
373.50	-0.005
373.00	0.001
372.50	0.003
372.00	0.002
371.50	-0.004
371.00	0.002
370.50	-0.004
370.00	0.001
369.50	-0.001
369.00	0.001
368.50	-0.001
368.00	-0.002
367.50	0.002
367.00	0.001
366.50	-0.001
366.00	0.001
365.50	-0.001
365.00	0.000
364.50	0.003
364.00	0.000
363.50	0.003
363.00	-0.005
362.50	0.000
362.00	-0.002
361.50	0.002
361.00	-0.002
360.50	-0.005
360.00	-0.004
359.50	0.000
359.00	0.001
358.50	0.002
358.00	0.001
357.50	0.002
357.00	-0.001
356.50	-0.001
356.00	-0.001
355.50	0.001
355.00	-0.002
354.50	-0.004
354.00	-0.001
353.50	0.001
353.00	0.000
352.50	0.004
352.00	-0.001
351.50	0.004
351.00	0.002
350.50	0.003
350.00	-0.001
349.50	0.003
349.00	-0.001
348.50	0.001
348.00	0.001
347.50	-0.003
347.00	-0.003
346.50	-0.001
346.00	0.001
345.50	0.000
345.00	-0.005
344.50	0.001
344.00	0.006
343.50	-0.001
343.00	-0.002
342.50	0.005
342.00	-0.002
341.50	0.004
341.00	0.001
340.50	0.007
340.00	-0.006
339.50	-0.007
339.00	0.002
338.50	0.001
338.00	0.000
337.50	0.000
337.00	0.000
336.50	0.002
336.00	-0.005
335.50	0.001
335.00	-0.002
334.50	0.003
334.00	0.003
333.50	0.004
333.00	0.002
332.50	-0.006
332.00	0.002
331.50	0.003
331.00	0.001
330.50	0.003
330.00	0.006
329.50	-0.001
329.00	-0.003
328.50	-0.001
328.00	0.001
327.50	-0.011
327.00	-0.002
326.50	0.014
326.00	0.006
325.50	0.005
325.00	-0.006
324.50	-0.001
324.00	-0.004
323.50	0.001
323.00	0.001
322.50	0.001
322.00	-0.002
321.50	0.003
321.00	0.004
320.50	-0.004
320.00	-0.004
319.50	0.002
319.00	0.001
318.50	0.000
318.00	-0.007
317.50	0.000
317.00	-0.007
316.50	0.000
316.00	0.002
315.50	0.000
315.00	0.000
314.50	0.000
314.00	-0.001
313.50	0.001
313.00	0.001
312.50	0.000
312.00	-0.001
311.50	0.002
311.00	0.002
310.50	-0.003
310.00	0.002
309.50	-0.001
309.00	-0.002
308.50	0.002
308.00	0.004
307.50	-0.003
307.00	-0.001
306.50	0.002
306.00	0.003
305.50	0.004
305.00	0.004
304.50	0.002
304.00	0.004
303.50	0.003
303.00	-0.004
302.50	0.005
302.00	-0.002
301.50	-0.002
301.00	-0.001
300.50	0.000
300.00	-0.001
299.50	0.005
299.00	0.005
298.50	0.000
298.00	0.004
297.50	0.002
297.00	0.000
296.50	-0.001
296.00	0.001
295.50	0.001
295.00	0.004
294.50	0.003
294.00	0.005
293.50	0.003
293.00	0.009
292.50	0.007
292.00	0.010
291.50	0.009
291.00	0.006
290.50	0.013
290.00	0.014
289.50	0.021
289.00	0.020
288.50	0.026
288.00	0.029
287.50	0.033
287.00	0.040
286.50	0.048
286.00	0.052
285.50	0.060
285.00	0.066
284.50	0.072
284.00	0.075
283.50	0.082
283.00	0.088
282.50	0.093
282.00	0.096
281.50	0.096
281.00	0.097
280.50	0.100
280.00	0.102
279.50	0.103
279.00	0.105
278.50	0.105
278.00	0.105
277.50	0.107
277.00	0.112
276.50	0.110
276.00	0.112
275.50	0.115
275.00	0.112
274.50	0.115
274.00	0.115
273.50	0.115
273.00	0.112
272.50	0.112
272.00	0.113
271.50	0.109
271.00	0.110
270.50	0.107
270.00	0.109
269.50	0.106
269.00	0.106
268.50	0.102
268.00	0.103
267.50	0.103
267.00	0.098
266.50	0.095
266.00	0.096
265.50	0.093
265.00	0.091
264.50	0.092
264.00	0.089
263.50	0.090
263.00	0.089
262.50	0.089
262.00	0.089
261.50	0.089
261.00	0.087
260.50	0.089
260.00	0.090
259.50	0.089
259.00	0.088
258.50	0.091
258.00	0.092
257.50	0.093
257.00	0.096
256.50	0.097
256.00	0.095
255.50	0.100
255.00	0.104
254.50	0.108
254.00	0.111
253.50	0.114
253.00	0.116
252.50	0.124
252.00	0.126
251.50	0.131
251.00	0.135
250.50	0.138
250.00	0.141
249.50	0.148
249.00	0.156
248.50	0.161
248.00	0.167
247.50	0.175
247.00	0.184
246.50	0.192
246.00	0.201
245.50	0.213
245.00	0.225
244.50	0.234
244.00	0.246
243.50	0.267
243.00	0.279
242.50	0.294
242.00	0.308
241.50	0.330
241.00	0.347
240.50	0.364
240.00	0.377
239.50	0.406
239.00	0.423
238.50	0.443
238.00	0.461
237.50	0.480
237.00	0.498
236.50	0.519
236.00	0.530
235.50	0.545
235.00	0.561
234.50	0.577
234.00	0.595
233.50	0.613
233.00	0.618
232.50	0.631
232.00	0.648
231.50	0.668
231.00	0.677
230.50	0.691
230.00	0.702
229.50	0.709
229.00	0.722
228.50	0.732
228.00	0.738
227.50	0.750
227.00	0.754
226.50	0.763
226.00	0.770
225.50	0.778
225.00	0.781
224.50	0.787
224.00	0.787
223.50	0.785
223.00	0.789
222.50	0.784
222.00	0.782
221.50	0.779
221.00	0.771
220.50	0.770
220.00	0.763
219.50	0.753
219.00	0.746
218.50	0.743
218.00	0.731
217.50	0.717
217.00	0.718
216.50	0.708
216.00	0.706
215.50	0.701
215.00	0.696
214.50	0.693
214.00	0.700
213.50	0.710
213.00	0.720
212.50	0.729
212.00	0.745
211.50	0.768
211.00	0.799
210.50	0.835
210.00	0.884
209.50	0.926
209.00	0.983
208.50	1.040
208.00	1.152
207.50	1.245
207.00	1.339
206.50	1.448
206.00	1.646
205.50	1.753
205.00	1.907
204.50	2.041
204.00	2.265
203.50	2.373
203.00	2.487
202.50	2.633
202.00	2.797
201.50	2.790
201.00	2.721
200.50	2.839
200.00	2.620

