Sample:	'UV-20260820-1-DMSO_0.000826(MeCN)
File name:	UV-20260820-1-DMSO_0.000826(MeCN).UDS
Run Date:	'15:59:35, 08/13/2026
Operator:	DELL
Comment:	'

Instrument
Model:	U-3900H Spectrophotometer
Serial Number:	'2192-001
ROM Version:	2J25300 07

Instrument Parameters
Measurement Type:	Wavelength Scan
Data Mode:	Abs
Start Wavelength:	800.00 nm
End Wavelength:	200.00 nm
Scan Speed:	300 nm/min
Sampling Interval:	0.50 nm
Delay:	0 s
Cycle Time:	0.1 min
Replicates:	1
Auto Zero before each run:	Off
Slit Width:	0.5 nm
PMT Voltage:	Auto
Lamp Change Mode:	Auto
Lamp Change Wavelength:	325.00 nm
Baseline Correction:	User 1(test_1)
High Resolution:	On
D2 Lamp:	On
WI Lamp:	On
R/S Reverse:	Off
Path Correct:	On
Path Length:	10.0 mm

Data Points
nm	Abs
800.00	-0.002
799.50	-0.001
799.00	0.000
798.50	0.000
798.00	-0.002
797.50	0.004
797.00	0.002
796.50	0.000
796.00	0.001
795.50	0.003
795.00	-0.004
794.50	0.000
794.00	-0.001
793.50	0.000
793.00	-0.002
792.50	0.003
792.00	-0.003
791.50	-0.005
791.00	0.003
790.50	0.001
790.00	0.008
789.50	-0.002
789.00	0.003
788.50	-0.006
788.00	0.004
787.50	-0.002
787.00	-0.001
786.50	-0.001
786.00	0.000
785.50	0.000
785.00	0.004
784.50	-0.004
784.00	-0.002
783.50	-0.001
783.00	0.002
782.50	-0.004
782.00	-0.002
781.50	0.005
781.00	-0.003
780.50	-0.004
780.00	-0.003
779.50	-0.003
779.00	-0.002
778.50	0.001
778.00	-0.003
777.50	-0.003
777.00	0.001
776.50	0.004
776.00	-0.004
775.50	0.001
775.00	-0.003
774.50	-0.004
774.00	-0.004
773.50	-0.003
773.00	-0.002
772.50	-0.001
772.00	0.005
771.50	-0.002
771.00	0.006
770.50	0.000
770.00	0.001
769.50	0.001
769.00	-0.003
768.50	0.001
768.00	-0.002
767.50	0.001
767.00	-0.006
766.50	-0.002
766.00	-0.002
765.50	-0.002
765.00	0.000
764.50	-0.005
764.00	0.003
763.50	0.001
763.00	-0.001
762.50	-0.003
762.00	-0.002
761.50	0.003
761.00	-0.001
760.50	-0.002
760.00	-0.001
759.50	-0.003
759.00	0.001
758.50	-0.003
758.00	0.000
757.50	0.000
757.00	0.003
756.50	-0.003
756.00	-0.002
755.50	0.004
755.00	0.000
754.50	0.000
754.00	0.004
753.50	-0.004
753.00	-0.001
752.50	0.004
752.00	-0.002
751.50	0.000
751.00	0.002
750.50	-0.004
750.00	-0.001
749.50	0.001
749.00	-0.001
748.50	-0.004
748.00	-0.001
747.50	0.004
747.00	0.000
746.50	-0.001
746.00	-0.003
745.50	-0.001
745.00	0.000
744.50	0.004
744.00	0.000
743.50	0.000
743.00	-0.002
742.50	-0.003
742.00	0.000
741.50	-0.003
741.00	0.002
740.50	-0.003
740.00	0.000
739.50	-0.001
739.00	-0.002
738.50	-0.003
738.00	0.000
737.50	0.001
737.00	-0.001
736.50	0.004
736.00	-0.002
735.50	-0.001
735.00	0.001
734.50	0.002
734.00	-0.001
733.50	-0.002
733.00	-0.003
732.50	0.002
732.00	0.003
731.50	0.000
731.00	0.004
730.50	0.001
730.00	0.001
729.50	0.001
729.00	0.002
728.50	-0.002
728.00	0.000
727.50	0.001
727.00	0.001
726.50	0.001
726.00	-0.004
725.50	-0.003
725.00	0.001
724.50	-0.002
724.00	-0.002
723.50	0.003
723.00	-0.004
722.50	-0.001
722.00	-0.001
721.50	0.000
721.00	-0.002
720.50	-0.001
720.00	-0.003
719.50	-0.002
719.00	-0.001
718.50	-0.002
718.00	-0.004
717.50	-0.001
717.00	-0.002
716.50	0.000
716.00	0.001
715.50	-0.003
715.00	0.001
714.50	0.002
714.00	0.000
713.50	0.002
713.00	-0.002
712.50	-0.002
712.00	-0.002
711.50	-0.002
711.00	0.001
710.50	0.000
710.00	0.000
709.50	0.001
709.00	0.000
708.50	0.000
708.00	-0.001
707.50	-0.002
707.00	0.001
706.50	0.001
706.00	-0.004
705.50	0.000
705.00	-0.002
704.50	0.003
704.00	0.002
703.50	0.001
703.00	0.000
702.50	-0.002
702.00	0.001
701.50	0.000
701.00	-0.003
700.50	0.000
700.00	-0.003
699.50	0.000
699.00	-0.001
698.50	0.001
698.00	0.000
697.50	0.002
697.00	0.000
696.50	-0.001
696.00	-0.002
695.50	-0.001
695.00	-0.001
694.50	-0.001
694.00	0.000
693.50	0.001
693.00	-0.002
692.50	0.000
692.00	-0.002
691.50	0.002
691.00	0.001
690.50	-0.002
690.00	0.000
689.50	-0.001
689.00	0.000
688.50	0.001
688.00	0.002
687.50	0.002
687.00	-0.003
686.50	0.001
686.00	-0.001
685.50	0.000
685.00	0.000
684.50	0.000
684.00	0.000
683.50	-0.004
683.00	-0.003
682.50	0.001
682.00	0.000
681.50	0.000
681.00	-0.001
680.50	0.001
680.00	0.002
679.50	0.001
679.00	-0.001
678.50	0.000
678.00	-0.002
677.50	0.002
677.00	-0.001
676.50	-0.002
676.00	-0.001
675.50	-0.002
675.00	-0.002
674.50	-0.002
674.00	0.001
673.50	0.000
673.00	-0.001
672.50	0.000
672.00	0.000
671.50	0.002
671.00	0.000
670.50	-0.001
670.00	0.001
669.50	-0.001
669.00	0.003
668.50	0.001
668.00	0.001
667.50	-0.001
667.00	0.002
666.50	-0.002
666.00	0.001
665.50	0.000
665.00	0.001
664.50	-0.001
664.00	-0.002
663.50	0.000
663.00	0.000
662.50	0.001
662.00	0.001
661.50	-0.003
661.00	0.000
660.50	-0.001
660.00	-0.002
659.50	0.000
659.00	-0.001
658.50	-0.002
658.00	-0.002
657.50	0.003
657.00	0.001
656.50	0.002
656.00	-0.001
655.50	-0.002
655.00	0.001
654.50	-0.001
654.00	0.001
653.50	-0.002
653.00	0.000
652.50	-0.001
652.00	-0.001
651.50	-0.001
651.00	0.001
650.50	-0.003
650.00	-0.003
649.50	-0.001
649.00	-0.001
648.50	0.001
648.00	0.000
647.50	0.000
647.00	0.000
646.50	-0.001
646.00	-0.001
645.50	-0.002
645.00	-0.002
644.50	-0.001
644.00	-0.002
643.50	-0.001
643.00	-0.001
642.50	0.000
642.00	-0.002
641.50	0.001
641.00	-0.002
640.50	0.000
640.00	0.001
639.50	0.001
639.00	0.001
638.50	0.002
638.00	0.001
637.50	0.000
637.00	-0.001
636.50	0.000
636.00	0.000
635.50	-0.001
635.00	0.000
634.50	-0.001
634.00	0.002
633.50	0.002
633.00	-0.002
632.50	-0.001
632.00	-0.003
631.50	-0.001
631.00	0.002
630.50	-0.001
630.00	-0.001
629.50	-0.001
629.00	0.000
628.50	-0.001
628.00	-0.002
627.50	0.000
627.00	-0.002
626.50	0.001
626.00	0.000
625.50	-0.003
625.00	-0.001
624.50	-0.001
624.00	0.000
623.50	-0.001
623.00	0.000
622.50	-0.003
622.00	-0.001
621.50	-0.002
621.00	0.000
620.50	0.001
620.00	-0.001
619.50	-0.001
619.00	0.000
618.50	0.000
618.00	0.000
617.50	0.002
617.00	0.000
616.50	0.000
616.00	-0.001
615.50	-0.001
615.00	-0.001
614.50	-0.002
614.00	0.002
613.50	0.000
613.00	0.000
612.50	-0.002
612.00	0.000
611.50	-0.002
611.00	0.001
610.50	0.001
610.00	0.000
609.50	0.001
609.00	-0.001
608.50	-0.001
608.00	-0.002
607.50	-0.001
607.00	-0.001
606.50	0.000
606.00	0.002
605.50	-0.002
605.00	0.001
604.50	-0.003
604.00	0.001
603.50	-0.001
603.00	-0.004
602.50	0.000
602.00	-0.001
601.50	-0.002
601.00	-0.001
600.50	-0.002
600.00	-0.001
599.50	-0.004
599.00	0.003
598.50	0.002
598.00	-0.001
597.50	-0.005
597.00	-0.003
596.50	-0.001
596.00	-0.001
595.50	0.004
595.00	-0.001
594.50	-0.001
594.00	-0.005
593.50	-0.001
593.00	-0.002
592.50	-0.001
592.00	0.001
591.50	0.001
591.00	-0.002
590.50	-0.001
590.00	0.000
589.50	-0.002
589.00	-0.002
588.50	0.000
588.00	-0.003
587.50	0.003
587.00	-0.002
586.50	0.000
586.00	0.001
585.50	-0.001
585.00	-0.002
584.50	-0.003
584.00	-0.003
583.50	0.003
583.00	-0.004
582.50	-0.001
582.00	-0.001
581.50	0.000
581.00	0.001
580.50	-0.001
580.00	-0.003
579.50	0.002
579.00	-0.002
578.50	0.001
578.00	-0.001
577.50	0.000
577.00	0.000
576.50	-0.002
576.00	0.002
575.50	0.000
575.00	-0.002
574.50	-0.002
574.00	-0.001
573.50	0.000
573.00	-0.001
572.50	0.000
572.00	0.001
571.50	0.000
571.00	-0.002
570.50	0.001
570.00	0.001
569.50	-0.001
569.00	-0.002
568.50	-0.004
568.00	-0.001
567.50	-0.002
567.00	0.002
566.50	0.001
566.00	-0.001
565.50	-0.001
565.00	-0.003
564.50	0.000
564.00	0.001
563.50	0.000
563.00	0.002
562.50	0.002
562.00	0.004
561.50	0.003
561.00	0.001
560.50	0.001
560.00	0.000
559.50	0.000
559.00	-0.001
558.50	0.000
558.00	-0.001
557.50	0.001
557.00	-0.001
556.50	0.000
556.00	-0.003
555.50	0.000
555.00	0.000
554.50	-0.001
554.00	-0.001
553.50	0.001
553.00	0.000
552.50	-0.002
552.00	0.000
551.50	0.000
551.00	-0.003
550.50	0.000
550.00	0.000
549.50	-0.001
549.00	0.002
548.50	-0.001
548.00	-0.003
547.50	0.000
547.00	0.000
546.50	-0.001
546.00	-0.001
545.50	-0.002
545.00	0.001
544.50	0.001
544.00	-0.001
543.50	-0.002
543.00	0.000
542.50	-0.001
542.00	0.001
541.50	0.000
541.00	-0.001
540.50	0.000
540.00	-0.001
539.50	0.000
539.00	0.001
538.50	-0.001
538.00	-0.001
537.50	0.001
537.00	0.000
536.50	-0.002
536.00	0.002
535.50	-0.002
535.00	-0.002
534.50	-0.002
534.00	0.000
533.50	0.000
533.00	0.000
532.50	-0.001
532.00	0.001
531.50	-0.001
531.00	-0.001
530.50	0.003
530.00	0.000
529.50	0.001
529.00	-0.002
528.50	0.000
528.00	-0.003
527.50	0.001
527.00	0.000
526.50	0.001
526.00	0.001
525.50	0.000
525.00	0.001
524.50	-0.001
524.00	0.000
523.50	-0.001
523.00	0.001
522.50	0.001
522.00	-0.002
521.50	-0.001
521.00	0.001
520.50	-0.001
520.00	-0.002
519.50	-0.001
519.00	-0.001
518.50	-0.001
518.00	-0.001
517.50	0.000
517.00	0.001
516.50	0.000
516.00	0.000
515.50	0.001
515.00	-0.002
514.50	-0.001
514.00	0.000
513.50	0.002
513.00	-0.001
512.50	-0.001
512.00	-0.002
511.50	0.000
511.00	0.001
510.50	-0.001
510.00	-0.001
509.50	-0.002
509.00	0.001
508.50	0.000
508.00	0.000
507.50	-0.001
507.00	0.000
506.50	0.002
506.00	-0.001
505.50	0.000
505.00	0.001
504.50	-0.001
504.00	-0.001
503.50	-0.001
503.00	-0.001
502.50	0.001
502.00	0.001
501.50	0.002
501.00	0.003
500.50	0.002
500.00	0.001
499.50	0.000
499.00	0.001
498.50	0.000
498.00	-0.001
497.50	-0.001
497.00	-0.001
496.50	0.001
496.00	-0.001
495.50	-0.001
495.00	0.000
494.50	-0.003
494.00	0.001
493.50	0.000
493.00	-0.001
492.50	-0.003
492.00	-0.001
491.50	0.000
491.00	0.002
490.50	0.000
490.00	0.000
489.50	-0.001
489.00	0.000
488.50	0.002
488.00	-0.001
487.50	-0.003
487.00	0.001
486.50	0.000
486.00	-0.001
485.50	0.001
485.00	-0.002
484.50	0.001
484.00	0.001
483.50	0.000
483.00	-0.003
482.50	0.000
482.00	0.000
481.50	-0.003
481.00	-0.001
480.50	-0.002
480.00	0.002
479.50	0.000
479.00	-0.002
478.50	-0.002
478.00	-0.001
477.50	0.000
477.00	-0.001
476.50	0.003
476.00	0.000
475.50	-0.004
475.00	-0.002
474.50	-0.001
474.00	0.001
473.50	-0.001
473.00	-0.001
472.50	0.002
472.00	-0.001
471.50	0.002
471.00	0.001
470.50	-0.002
470.00	0.000
469.50	-0.001
469.00	0.001
468.50	-0.001
468.00	-0.002
467.50	-0.003
467.00	0.002
466.50	-0.001
466.00	-0.002
465.50	0.001
465.00	-0.001
464.50	-0.002
464.00	0.000
463.50	-0.001
463.00	-0.001
462.50	-0.001
462.00	0.000
461.50	-0.001
461.00	-0.001
460.50	0.003
460.00	0.001
459.50	0.000
459.00	0.001
458.50	0.001
458.00	0.000
457.50	-0.002
457.00	-0.002
456.50	0.000
456.00	-0.002
455.50	-0.001
455.00	-0.002
454.50	-0.001
454.00	0.000
453.50	0.002
453.00	0.000
452.50	0.000
452.00	0.001
451.50	-0.001
451.00	0.001
450.50	-0.001
450.00	-0.001
449.50	0.002
449.00	0.000
448.50	-0.003
448.00	0.001
447.50	-0.002
447.00	0.001
446.50	0.002
446.00	0.002
445.50	0.000
445.00	-0.004
444.50	0.002
444.00	0.003
443.50	0.000
443.00	0.001
442.50	-0.003
442.00	-0.001
441.50	-0.001
441.00	0.000
440.50	-0.002
440.00	0.003
439.50	-0.003
439.00	0.002
438.50	0.002
438.00	0.000
437.50	0.000
437.00	0.000
436.50	-0.001
436.00	-0.002
435.50	0.003
435.00	0.000
434.50	0.002
434.00	-0.001
433.50	-0.001
433.00	-0.001
432.50	-0.001
432.00	-0.002
431.50	0.000
431.00	0.000
430.50	-0.001
430.00	0.002
429.50	0.001
429.00	-0.001
428.50	-0.001
428.00	0.004
427.50	0.001
427.00	-0.002
426.50	-0.002
426.00	-0.002
425.50	-0.002
425.00	-0.001
424.50	0.000
424.00	0.004
423.50	0.001
423.00	0.001
422.50	-0.001
422.00	0.000
421.50	0.001
421.00	-0.002
420.50	-0.002
420.00	0.002
419.50	-0.001
419.00	0.000
418.50	0.001
418.00	0.001
417.50	0.002
417.00	0.003
416.50	0.000
416.00	0.001
415.50	-0.001
415.00	0.000
414.50	0.000
414.00	-0.001
413.50	-0.001
413.00	0.001
412.50	0.001
412.00	-0.001
411.50	0.003
411.00	0.002
410.50	-0.003
410.00	0.000
409.50	0.001
409.00	0.000
408.50	0.000
408.00	-0.002
407.50	0.000
407.00	0.000
406.50	-0.002
406.00	0.001
405.50	0.002
405.00	0.002
404.50	0.002
404.00	0.003
403.50	0.002
403.00	0.002
402.50	0.000
402.00	-0.004
401.50	-0.003
401.00	-0.002
400.50	0.003
400.00	0.002
399.50	-0.002
399.00	0.000
398.50	-0.001
398.00	0.003
397.50	0.001
397.00	0.002
396.50	0.000
396.00	-0.001
395.50	0.002
395.00	-0.004
394.50	-0.001
394.00	0.001
393.50	0.001
393.00	-0.002
392.50	0.000
392.00	0.002
391.50	0.000
391.00	-0.003
390.50	0.003
390.00	0.000
389.50	-0.001
389.00	-0.001
388.50	0.003
388.00	0.000
387.50	0.003
387.00	0.002
386.50	0.004
386.00	-0.001
385.50	-0.005
385.00	-0.003
384.50	0.001
384.00	-0.003
383.50	0.000
383.00	0.001
382.50	0.000
382.00	-0.004
381.50	0.001
381.00	0.001
380.50	0.002
380.00	-0.001
379.50	0.000
379.00	0.002
378.50	0.003
378.00	0.003
377.50	-0.005
377.00	0.004
376.50	0.000
376.00	0.001
375.50	0.001
375.00	0.005
374.50	-0.004
374.00	0.001
373.50	0.003
373.00	0.000
372.50	0.003
372.00	-0.001
371.50	-0.003
371.00	-0.001
370.50	0.001
370.00	0.005
369.50	0.001
369.00	-0.002
368.50	-0.001
368.00	-0.003
367.50	0.004
367.00	0.001
366.50	0.003
366.00	-0.002
365.50	0.003
365.00	0.001
364.50	0.004
364.00	-0.002
363.50	0.001
363.00	-0.001
362.50	-0.003
362.00	-0.007
361.50	0.000
361.00	0.001
360.50	0.003
360.00	-0.005
359.50	0.004
359.00	0.002
358.50	0.001
358.00	-0.004
357.50	0.002
357.00	-0.001
356.50	-0.004
356.00	0.003
355.50	-0.001
355.00	-0.002
354.50	0.001
354.00	-0.001
353.50	-0.001
353.00	0.002
352.50	0.001
352.00	0.004
351.50	0.009
351.00	0.007
350.50	0.001
350.00	0.001
349.50	0.006
349.00	-0.001
348.50	0.004
348.00	0.001
347.50	-0.001
347.00	0.000
346.50	0.004
346.00	0.001
345.50	0.011
345.00	-0.003
344.50	-0.004
344.00	0.004
343.50	-0.002
343.00	-0.003
342.50	0.001
342.00	0.003
341.50	-0.003
341.00	0.002
340.50	-0.001
340.00	-0.001
339.50	-0.003
339.00	0.003
338.50	0.003
338.00	-0.001
337.50	0.000
337.00	-0.004
336.50	0.000
336.00	0.001
335.50	-0.005
335.00	-0.005
334.50	0.009
334.00	-0.001
333.50	0.004
333.00	0.003
332.50	-0.006
332.00	0.005
331.50	0.000
331.00	-0.002
330.50	0.007
330.00	-0.002
329.50	0.001
329.00	-0.007
328.50	-0.005
328.00	-0.002
327.50	-0.002
327.00	-0.004
326.50	0.008
326.00	0.006
325.50	-0.010
325.00	0.002
324.50	-0.002
324.00	0.003
323.50	0.001
323.00	0.001
322.50	-0.001
322.00	0.002
321.50	0.003
321.00	0.007
320.50	-0.004
320.00	-0.001
319.50	0.004
319.00	0.004
318.50	0.001
318.00	0.002
317.50	-0.003
317.00	-0.003
316.50	0.002
316.00	0.006
315.50	-0.001
315.00	0.001
314.50	0.001
314.00	0.001
313.50	0.001
313.00	0.001
312.50	0.001
312.00	-0.002
311.50	0.002
311.00	0.004
310.50	0.001
310.00	0.004
309.50	-0.001
309.00	-0.001
308.50	0.000
308.00	0.002
307.50	-0.002
307.00	0.000
306.50	0.002
306.00	0.003
305.50	0.000
305.00	0.003
304.50	0.005
304.00	-0.001
303.50	0.006
303.00	-0.004
302.50	0.003
302.00	0.000
301.50	0.000
301.00	0.003
300.50	0.000
300.00	0.002
299.50	0.002
299.00	0.005
298.50	0.001
298.00	0.002
297.50	0.004
297.00	0.001
296.50	0.002
296.00	-0.001
295.50	0.002
295.00	0.000
294.50	0.003
294.00	0.005
293.50	0.002
293.00	0.004
292.50	0.003
292.00	0.002
291.50	0.005
291.00	-0.002
290.50	0.001
290.00	0.006
289.50	0.002
289.00	0.002
288.50	0.002
288.00	-0.001
287.50	0.002
287.00	0.005
286.50	0.005
286.00	0.004
285.50	0.007
285.00	0.003
284.50	0.006
284.00	0.004
283.50	0.004
283.00	0.008
282.50	0.005
282.00	0.006
281.50	0.007
281.00	0.005
280.50	0.007
280.00	0.004
279.50	0.007
279.00	0.006
278.50	0.007
278.00	0.007
277.50	0.007
277.00	0.009
276.50	0.006
276.00	0.008
275.50	0.006
275.00	0.008
274.50	0.007
274.00	0.004
273.50	0.004
273.00	0.009
272.50	0.006
272.00	0.006
271.50	0.007
271.00	0.009
270.50	0.004
270.00	0.011
269.50	0.011
269.00	0.009
268.50	0.006
268.00	0.011
267.50	0.010
267.00	0.007
266.50	0.008
266.00	0.008
265.50	0.007
265.00	0.008
264.50	0.008
264.00	0.006
263.50	0.007
263.00	0.006
262.50	0.008
262.00	0.010
261.50	0.012
261.00	0.008
260.50	0.007
260.00	0.010
259.50	0.008
259.00	0.008
258.50	0.009
258.00	0.009
257.50	0.006
257.00	0.005
256.50	0.009
256.00	0.003
255.50	0.006
255.00	0.005
254.50	0.007
254.00	0.007
253.50	0.011
253.00	0.007
252.50	0.009
252.00	0.011
251.50	0.009
251.00	0.007
250.50	0.009
250.00	0.008
249.50	0.007
249.00	0.011
248.50	0.008
248.00	0.009
247.50	0.010
247.00	0.013
246.50	0.010
246.00	0.013
245.50	0.010
245.00	0.014
244.50	0.014
244.00	0.014
243.50	0.013
243.00	0.015
242.50	0.019
242.00	0.019
241.50	0.022
241.00	0.026
240.50	0.026
240.00	0.026
239.50	0.031
239.00	0.033
238.50	0.036
238.00	0.040
237.50	0.041
237.00	0.048
236.50	0.053
236.00	0.055
235.50	0.060
235.00	0.070
234.50	0.080
234.00	0.089
233.50	0.099
233.00	0.102
232.50	0.115
232.00	0.129
231.50	0.143
231.00	0.157
230.50	0.167
230.00	0.192
229.50	0.204
229.00	0.226
228.50	0.239
228.00	0.270
227.50	0.291
227.00	0.316
226.50	0.335
226.00	0.373
225.50	0.400
225.00	0.431
224.50	0.458
224.00	0.501
223.50	0.529
223.00	0.554
222.50	0.585
222.00	0.624
221.50	0.653
221.00	0.672
220.50	0.701
220.00	0.739
219.50	0.756
219.00	0.774
218.50	0.800
218.00	0.823
217.50	0.846
217.00	0.863
216.50	0.881
216.00	0.890
215.50	0.907
215.00	0.921
214.50	0.931
214.00	0.948
213.50	0.952
213.00	0.959
212.50	0.978
212.00	0.994
211.50	1.008
211.00	1.026
210.50	1.055
210.00	1.074
209.50	1.112
209.00	1.153
208.50	1.199
208.00	1.260
207.50	1.312
207.00	1.387
206.50	1.480
206.00	1.546
205.50	1.633
205.00	1.718
204.50	1.872
204.00	1.972
203.50	2.029
203.00	2.198
202.50	2.272
202.00	2.306
201.50	2.427
201.00	2.487
200.50	2.519
200.00	2.619

