Sample:	'UV-20260820-1-MeCN(pure)
File name:	C600day-50ppm_20260813144310.UDS
Run Date:	'14:40:12, 08/13/2026
Operator:	DELL
Comment:	'

Instrument
Model:	U-3900H Spectrophotometer
Serial Number:	'2192-001
ROM Version:	2J25300 07

Instrument Parameters
Measurement Type:	Wavelength Scan
Data Mode:	Abs
Start Wavelength:	800.00 nm
End Wavelength:	200.00 nm
Scan Speed:	300 nm/min
Sampling Interval:	0.50 nm
Delay:	0 s
Cycle Time:	0.1 min
Replicates:	1
Auto Zero before each run:	Off
Slit Width:	0.5 nm
PMT Voltage:	Auto
Lamp Change Mode:	Auto
Lamp Change Wavelength:	325.00 nm
Baseline Correction:	User 1(test_1)
High Resolution:	On
D2 Lamp:	On
WI Lamp:	On
R/S Reverse:	Off
Path Correct:	On
Path Length:	10.0 mm

Data Points
nm	Abs
800.00	-0.001
799.50	0.001
799.00	0.003
798.50	0.003
798.00	-0.005
797.50	0.008
797.00	0.003
796.50	0.001
796.00	0.004
795.50	0.002
795.00	0.001
794.50	0.000
794.00	-0.001
793.50	-0.004
793.00	-0.002
792.50	-0.001
792.00	-0.002
791.50	-0.005
791.00	-0.003
790.50	-0.001
790.00	0.006
789.50	-0.003
789.00	0.001
788.50	-0.008
788.00	0.002
787.50	-0.001
787.00	0.000
786.50	-0.003
786.00	0.002
785.50	0.001
785.00	0.004
784.50	-0.002
784.00	0.000
783.50	-0.001
783.00	0.000
782.50	0.000
782.00	-0.005
781.50	0.002
781.00	-0.002
780.50	0.000
780.00	0.003
779.50	0.001
779.00	0.000
778.50	0.005
778.00	0.001
777.50	-0.002
777.00	0.002
776.50	0.003
776.00	-0.004
775.50	0.002
775.00	0.003
774.50	0.000
774.00	-0.003
773.50	-0.001
773.00	-0.004
772.50	-0.001
772.00	0.003
771.50	-0.003
771.00	0.001
770.50	0.003
770.00	0.006
769.50	0.001
769.00	-0.002
768.50	-0.001
768.00	-0.002
767.50	-0.004
767.00	-0.003
766.50	0.000
766.00	-0.003
765.50	-0.003
765.00	-0.001
764.50	-0.002
764.00	-0.001
763.50	0.002
763.00	0.003
762.50	-0.003
762.00	0.000
761.50	0.003
761.00	0.000
760.50	-0.001
760.00	0.001
759.50	0.001
759.00	0.004
758.50	0.001
758.00	-0.005
757.50	-0.001
757.00	0.000
756.50	-0.001
756.00	0.000
755.50	0.003
755.00	0.003
754.50	0.002
754.00	0.003
753.50	-0.002
753.00	0.003
752.50	0.000
752.00	0.001
751.50	0.001
751.00	0.000
750.50	-0.001
750.00	0.001
749.50	0.003
749.00	-0.002
748.50	0.000
748.00	0.002
747.50	0.005
747.00	-0.003
746.50	0.000
746.00	-0.002
745.50	0.003
745.00	-0.002
744.50	0.003
744.00	-0.003
743.50	-0.002
743.00	0.001
742.50	-0.001
742.00	0.001
741.50	0.002
741.00	0.000
740.50	-0.003
740.00	0.002
739.50	0.000
739.00	0.000
738.50	0.001
738.00	0.003
737.50	0.001
737.00	-0.002
736.50	0.003
736.00	-0.005
735.50	0.002
735.00	0.001
734.50	-0.002
734.00	-0.001
733.50	-0.002
733.00	-0.006
732.50	0.003
732.00	0.002
731.50	-0.001
731.00	0.004
730.50	0.002
730.00	-0.002
729.50	0.001
729.00	0.001
728.50	0.000
728.00	0.001
727.50	0.001
727.00	0.000
726.50	0.004
726.00	-0.001
725.50	-0.003
725.00	0.000
724.50	0.001
724.00	0.000
723.50	0.001
723.00	-0.001
722.50	-0.001
722.00	-0.001
721.50	-0.002
721.00	-0.003
720.50	0.002
720.00	-0.002
719.50	-0.002
719.00	0.000
718.50	0.002
718.00	0.002
717.50	0.000
717.00	-0.003
716.50	0.003
716.00	0.002
715.50	-0.002
715.00	0.001
714.50	-0.001
714.00	-0.002
713.50	0.003
713.00	0.000
712.50	0.000
712.00	0.001
711.50	-0.003
711.00	0.001
710.50	0.000
710.00	0.003
709.50	0.003
709.00	0.000
708.50	-0.001
708.00	0.000
707.50	-0.004
707.00	-0.002
706.50	-0.001
706.00	-0.004
705.50	0.000
705.00	-0.001
704.50	0.000
704.00	-0.002
703.50	0.002
703.00	0.001
702.50	0.000
702.00	0.002
701.50	-0.002
701.00	0.002
700.50	0.001
700.00	-0.003
699.50	0.000
699.00	0.000
698.50	0.001
698.00	0.001
697.50	0.000
697.00	0.002
696.50	-0.001
696.00	-0.004
695.50	-0.001
695.00	-0.001
694.50	0.000
694.00	0.002
693.50	0.003
693.00	-0.001
692.50	-0.002
692.00	0.000
691.50	0.002
691.00	-0.003
690.50	-0.001
690.00	0.000
689.50	-0.001
689.00	0.002
688.50	0.000
688.00	0.002
687.50	0.001
687.00	-0.003
686.50	0.002
686.00	0.001
685.50	-0.001
685.00	-0.001
684.50	-0.001
684.00	-0.001
683.50	-0.003
683.00	-0.002
682.50	0.005
682.00	-0.003
681.50	0.001
681.00	-0.001
680.50	0.000
680.00	-0.002
679.50	0.001
679.00	0.003
678.50	0.000
678.00	-0.002
677.50	0.002
677.00	0.000
676.50	-0.003
676.00	-0.002
675.50	0.002
675.00	0.002
674.50	0.000
674.00	0.001
673.50	0.000
673.00	-0.003
672.50	0.002
672.00	0.000
671.50	0.003
671.00	0.001
670.50	0.003
670.00	0.001
669.50	-0.002
669.00	0.001
668.50	0.002
668.00	0.003
667.50	0.000
667.00	0.000
666.50	-0.001
666.00	0.001
665.50	0.000
665.00	0.001
664.50	0.003
664.00	0.001
663.50	0.000
663.00	-0.002
662.50	0.000
662.00	0.000
661.50	-0.002
661.00	0.003
660.50	0.001
660.00	0.001
659.50	-0.002
659.00	0.002
658.50	-0.002
658.00	-0.002
657.50	0.002
657.00	0.000
656.50	0.002
656.00	-0.001
655.50	-0.003
655.00	0.001
654.50	0.001
654.00	0.001
653.50	-0.001
653.00	0.000
652.50	-0.001
652.00	-0.001
651.50	-0.002
651.00	-0.001
650.50	-0.003
650.00	-0.002
649.50	0.000
649.00	0.001
648.50	0.000
648.00	0.001
647.50	-0.001
647.00	0.002
646.50	0.000
646.00	-0.002
645.50	-0.003
645.00	0.000
644.50	-0.002
644.00	-0.001
643.50	0.001
643.00	-0.001
642.50	0.000
642.00	0.000
641.50	0.000
641.00	-0.002
640.50	-0.001
640.00	-0.001
639.50	0.000
639.00	0.001
638.50	0.002
638.00	0.001
637.50	0.000
637.00	0.000
636.50	-0.001
636.00	-0.003
635.50	0.002
635.00	0.000
634.50	-0.002
634.00	0.002
633.50	0.003
633.00	0.001
632.50	0.002
632.00	-0.001
631.50	-0.001
631.00	0.000
630.50	0.000
630.00	-0.001
629.50	-0.002
629.00	0.000
628.50	0.000
628.00	-0.001
627.50	-0.001
627.00	-0.002
626.50	0.001
626.00	0.000
625.50	-0.001
625.00	-0.001
624.50	0.000
624.00	0.001
623.50	0.000
623.00	0.001
622.50	-0.003
622.00	0.000
621.50	-0.002
621.00	0.001
620.50	0.000
620.00	-0.001
619.50	-0.001
619.00	0.003
618.50	-0.001
618.00	0.000
617.50	0.001
617.00	0.000
616.50	0.001
616.00	-0.001
615.50	0.001
615.00	0.000
614.50	0.000
614.00	0.000
613.50	-0.002
613.00	0.002
612.50	-0.002
612.00	0.001
611.50	0.000
611.00	0.003
610.50	0.002
610.00	-0.001
609.50	0.001
609.00	-0.001
608.50	0.000
608.00	-0.002
607.50	-0.003
607.00	0.001
606.50	0.002
606.00	0.003
605.50	0.001
605.00	-0.001
604.50	-0.002
604.00	0.001
603.50	-0.002
603.00	0.000
602.50	0.001
602.00	0.001
601.50	-0.002
601.00	-0.002
600.50	-0.008
600.00	-0.002
599.50	-0.002
599.00	0.004
598.50	0.004
598.00	0.002
597.50	-0.004
597.00	0.003
596.50	-0.001
596.00	-0.002
595.50	0.001
595.00	-0.004
594.50	0.001
594.00	-0.004
593.50	-0.001
593.00	0.000
592.50	0.001
592.00	-0.002
591.50	0.002
591.00	0.001
590.50	-0.001
590.00	0.004
589.50	-0.002
589.00	-0.001
588.50	0.000
588.00	-0.003
587.50	-0.001
587.00	-0.001
586.50	0.001
586.00	0.001
585.50	0.000
585.00	-0.001
584.50	-0.001
584.00	0.000
583.50	0.000
583.00	0.003
582.50	0.000
582.00	-0.001
581.50	0.000
581.00	0.001
580.50	0.001
580.00	-0.002
579.50	0.001
579.00	0.001
578.50	0.001
578.00	0.000
577.50	-0.001
577.00	0.001
576.50	0.001
576.00	0.002
575.50	0.000
575.00	-0.001
574.50	-0.001
574.00	0.001
573.50	-0.001
573.00	-0.001
572.50	0.002
572.00	0.001
571.50	0.000
571.00	0.001
570.50	0.002
570.00	0.000
569.50	-0.001
569.00	-0.001
568.50	-0.004
568.00	-0.001
567.50	-0.001
567.00	0.002
566.50	0.002
566.00	-0.001
565.50	-0.001
565.00	0.000
564.50	0.002
564.00	0.002
563.50	0.002
563.00	0.000
562.50	0.001
562.00	0.000
561.50	0.003
561.00	0.000
560.50	0.002
560.00	0.002
559.50	0.002
559.00	0.001
558.50	-0.001
558.00	0.000
557.50	0.001
557.00	0.000
556.50	0.002
556.00	0.000
555.50	-0.001
555.00	-0.002
554.50	-0.003
554.00	-0.002
553.50	-0.001
553.00	0.000
552.50	-0.003
552.00	0.000
551.50	0.000
551.00	-0.001
550.50	0.000
550.00	0.000
549.50	-0.001
549.00	0.000
548.50	-0.003
548.00	0.000
547.50	-0.001
547.00	-0.001
546.50	-0.002
546.00	0.000
545.50	0.001
545.00	-0.001
544.50	0.000
544.00	0.001
543.50	0.000
543.00	0.001
542.50	0.001
542.00	-0.001
541.50	-0.002
541.00	-0.002
540.50	0.001
540.00	-0.001
539.50	0.002
539.00	0.000
538.50	0.000
538.00	0.002
537.50	0.001
537.00	-0.002
536.50	-0.001
536.00	0.001
535.50	0.000
535.00	-0.001
534.50	0.001
534.00	0.000
533.50	-0.001
533.00	-0.002
532.50	-0.001
532.00	0.000
531.50	0.001
531.00	-0.001
530.50	0.000
530.00	-0.001
529.50	-0.001
529.00	-0.004
528.50	0.001
528.00	-0.003
527.50	0.001
527.00	0.002
526.50	0.001
526.00	0.003
525.50	0.001
525.00	-0.002
524.50	0.001
524.00	0.000
523.50	-0.001
523.00	0.001
522.50	0.000
522.00	-0.002
521.50	0.000
521.00	0.004
520.50	0.000
520.00	-0.002
519.50	0.000
519.00	-0.001
518.50	-0.002
518.00	0.000
517.50	-0.001
517.00	0.000
516.50	0.001
516.00	0.001
515.50	-0.002
515.00	-0.002
514.50	-0.002
514.00	0.001
513.50	-0.001
513.00	-0.001
512.50	0.000
512.00	-0.001
511.50	0.000
511.00	0.001
510.50	-0.001
510.00	0.000
509.50	-0.002
509.00	0.000
508.50	0.001
508.00	-0.002
507.50	-0.001
507.00	0.001
506.50	0.000
506.00	-0.002
505.50	0.001
505.00	0.000
504.50	-0.003
504.00	-0.001
503.50	-0.001
503.00	0.000
502.50	0.001
502.00	0.001
501.50	0.001
501.00	0.002
500.50	0.001
500.00	0.000
499.50	-0.003
499.00	0.000
498.50	-0.001
498.00	-0.001
497.50	-0.001
497.00	-0.001
496.50	0.000
496.00	0.000
495.50	0.002
495.00	0.002
494.50	-0.002
494.00	0.003
493.50	0.000
493.00	0.000
492.50	-0.002
492.00	-0.002
491.50	0.001
491.00	0.000
490.50	-0.001
490.00	0.000
489.50	-0.002
489.00	0.001
488.50	0.002
488.00	-0.001
487.50	0.000
487.00	-0.001
486.50	0.001
486.00	-0.001
485.50	0.000
485.00	-0.003
484.50	0.001
484.00	0.001
483.50	0.000
483.00	-0.002
482.50	-0.001
482.00	0.001
481.50	-0.002
481.00	-0.001
480.50	-0.002
480.00	0.002
479.50	0.000
479.00	-0.001
478.50	-0.002
478.00	0.000
477.50	-0.002
477.00	-0.002
476.50	0.000
476.00	0.000
475.50	-0.001
475.00	-0.003
474.50	0.000
474.00	0.001
473.50	-0.001
473.00	-0.001
472.50	-0.001
472.00	0.001
471.50	0.001
471.00	0.000
470.50	-0.001
470.00	-0.002
469.50	-0.003
469.00	-0.001
468.50	0.001
468.00	0.002
467.50	0.000
467.00	0.003
466.50	-0.001
466.00	-0.003
465.50	0.002
465.00	-0.001
464.50	0.001
464.00	-0.002
463.50	-0.001
463.00	-0.002
462.50	-0.003
462.00	-0.001
461.50	-0.003
461.00	0.001
460.50	0.001
460.00	0.002
459.50	0.002
459.00	-0.002
458.50	0.000
458.00	0.000
457.50	0.000
457.00	-0.001
456.50	0.002
456.00	-0.002
455.50	-0.002
455.00	-0.002
454.50	0.000
454.00	-0.002
453.50	0.001
453.00	-0.003
452.50	-0.002
452.00	0.000
451.50	0.002
451.00	-0.002
450.50	-0.001
450.00	-0.001
449.50	0.001
449.00	0.000
448.50	-0.001
448.00	0.000
447.50	-0.003
447.00	0.000
446.50	0.000
446.00	0.002
445.50	0.000
445.00	-0.002
444.50	-0.001
444.00	0.000
443.50	0.001
443.00	0.000
442.50	-0.001
442.00	-0.004
441.50	0.003
441.00	-0.001
440.50	-0.002
440.00	0.000
439.50	-0.002
439.00	0.001
438.50	0.002
438.00	0.001
437.50	0.000
437.00	0.001
436.50	-0.002
436.00	0.000
435.50	0.004
435.00	-0.003
434.50	-0.001
434.00	-0.001
433.50	-0.002
433.00	-0.002
432.50	0.002
432.00	-0.001
431.50	-0.001
431.00	0.002
430.50	0.000
430.00	-0.002
429.50	0.001
429.00	0.000
428.50	-0.001
428.00	0.001
427.50	-0.001
427.00	-0.003
426.50	-0.001
426.00	-0.004
425.50	0.003
425.00	0.002
424.50	-0.001
424.00	-0.001
423.50	0.002
423.00	0.001
422.50	-0.004
422.00	0.000
421.50	0.001
421.00	0.000
420.50	-0.003
420.00	0.004
419.50	0.001
419.00	-0.002
418.50	0.001
418.00	0.001
417.50	0.003
417.00	0.003
416.50	-0.002
416.00	-0.002
415.50	0.000
415.00	0.001
414.50	-0.004
414.00	-0.001
413.50	-0.001
413.00	-0.002
412.50	0.000
412.00	0.002
411.50	0.002
411.00	0.002
410.50	-0.001
410.00	-0.001
409.50	-0.001
409.00	-0.002
408.50	-0.001
408.00	-0.004
407.50	-0.003
407.00	0.001
406.50	-0.002
406.00	0.003
405.50	0.003
405.00	0.000
404.50	0.002
404.00	0.001
403.50	-0.001
403.00	0.001
402.50	0.001
402.00	-0.003
401.50	-0.002
401.00	0.000
400.50	0.003
400.00	-0.002
399.50	0.000
399.00	0.000
398.50	-0.002
398.00	0.004
397.50	0.002
397.00	-0.001
396.50	0.000
396.00	-0.002
395.50	-0.002
395.00	-0.001
394.50	0.000
394.00	0.003
393.50	0.003
393.00	0.001
392.50	0.002
392.00	0.001
391.50	-0.004
391.00	-0.006
390.50	0.002
390.00	-0.003
389.50	-0.003
389.00	-0.003
388.50	0.002
388.00	0.002
387.50	0.004
387.00	0.000
386.50	0.003
386.00	-0.003
385.50	-0.001
385.00	-0.003
384.50	0.000
384.00	-0.001
383.50	0.001
383.00	-0.004
382.50	-0.001
382.00	-0.002
381.50	0.000
381.00	0.002
380.50	0.000
380.00	-0.001
379.50	0.002
379.00	0.003
378.50	-0.001
378.00	-0.001
377.50	-0.003
377.00	0.006
376.50	0.002
376.00	0.003
375.50	-0.001
375.00	0.003
374.50	0.000
374.00	0.002
373.50	0.001
373.00	0.001
372.50	0.002
372.00	-0.003
371.50	0.003
371.00	0.002
370.50	0.002
370.00	0.003
369.50	-0.004
369.00	0.000
368.50	-0.004
368.00	-0.001
367.50	0.002
367.00	0.002
366.50	0.001
366.00	0.001
365.50	0.000
365.00	0.002
364.50	0.001
364.00	0.000
363.50	-0.003
363.00	-0.005
362.50	-0.004
362.00	0.001
361.50	0.000
361.00	-0.002
360.50	-0.004
360.00	-0.006
359.50	0.003
359.00	0.000
358.50	0.003
358.00	-0.003
357.50	-0.002
357.00	0.001
356.50	0.000
356.00	0.001
355.50	-0.001
355.00	0.002
354.50	-0.005
354.00	-0.002
353.50	0.001
353.00	-0.002
352.50	-0.003
352.00	0.003
351.50	0.006
351.00	0.004
350.50	0.003
350.00	0.000
349.50	0.003
349.00	0.001
348.50	0.002
348.00	0.002
347.50	0.002
347.00	0.001
346.50	0.001
346.00	0.000
345.50	-0.003
345.00	0.003
344.50	-0.007
344.00	0.007
343.50	0.000
343.00	-0.003
342.50	-0.002
342.00	0.000
341.50	-0.004
341.00	0.002
340.50	0.004
340.00	0.003
339.50	-0.004
339.00	0.005
338.50	-0.002
338.00	-0.002
337.50	-0.002
337.00	0.002
336.50	0.003
336.00	0.002
335.50	-0.001
335.00	-0.009
334.50	0.004
334.00	0.004
333.50	0.004
333.00	-0.005
332.50	-0.009
332.00	-0.003
331.50	0.003
331.00	-0.002
330.50	0.004
330.00	0.006
329.50	-0.002
329.00	-0.003
328.50	0.001
328.00	-0.004
327.50	-0.011
327.00	0.005
326.50	-0.001
326.00	0.011
325.50	-0.005
325.00	-0.004
324.50	-0.006
324.00	-0.003
323.50	0.001
323.00	0.003
322.50	-0.004
322.00	-0.005
321.50	0.001
321.00	0.005
320.50	-0.004
320.00	-0.003
319.50	0.001
319.00	0.004
318.50	0.001
318.00	-0.002
317.50	-0.003
317.00	-0.005
316.50	0.001
316.00	-0.002
315.50	-0.004
315.00	0.000
314.50	0.000
314.00	-0.001
313.50	-0.001
313.00	-0.002
312.50	0.000
312.00	0.003
311.50	0.003
311.00	0.001
310.50	0.000
310.00	0.000
309.50	-0.001
309.00	-0.001
308.50	-0.004
308.00	0.000
307.50	-0.003
307.00	-0.001
306.50	0.001
306.00	0.004
305.50	0.003
305.00	0.005
304.50	0.003
304.00	0.001
303.50	0.003
303.00	0.000
302.50	0.006
302.00	0.000
301.50	-0.001
301.00	0.000
300.50	-0.002
300.00	0.000
299.50	0.003
299.00	0.000
298.50	0.000
298.00	-0.001
297.50	0.003
297.00	0.003
296.50	0.000
296.00	0.001
295.50	0.001
295.00	-0.001
294.50	0.002
294.00	0.003
293.50	-0.001
293.00	0.002
292.50	0.000
292.00	0.001
291.50	0.001
291.00	-0.004
290.50	-0.002
290.00	0.001
289.50	-0.001
289.00	-0.002
288.50	0.000
288.00	-0.001
287.50	-0.005
287.00	0.000
286.50	0.001
286.00	0.001
285.50	0.004
285.00	0.000
284.50	0.003
284.00	-0.001
283.50	-0.001
283.00	0.001
282.50	0.001
282.00	0.001
281.50	0.001
281.00	-0.002
280.50	0.001
280.00	0.000
279.50	0.000
279.00	-0.003
278.50	0.002
278.00	-0.002
277.50	0.000
277.00	0.006
276.50	0.000
276.00	0.001
275.50	0.002
275.00	0.001
274.50	0.000
274.00	0.001
273.50	0.001
273.00	0.002
272.50	0.000
272.00	-0.001
271.50	0.000
271.00	0.002
270.50	-0.001
270.00	0.003
269.50	0.002
269.00	0.004
268.50	-0.002
268.00	0.005
267.50	0.000
267.00	-0.001
266.50	0.000
266.00	0.001
265.50	0.000
265.00	-0.001
264.50	0.005
264.00	0.002
263.50	0.002
263.00	-0.002
262.50	0.003
262.00	0.002
261.50	0.002
261.00	0.001
260.50	0.000
260.00	-0.002
259.50	0.000
259.00	0.000
258.50	0.000
258.00	-0.002
257.50	0.003
257.00	-0.002
256.50	-0.001
256.00	-0.003
255.50	-0.002
255.00	-0.004
254.50	0.000
254.00	0.001
253.50	0.000
253.00	0.001
252.50	0.003
252.00	0.000
251.50	0.000
251.00	-0.001
250.50	0.000
250.00	0.000
249.50	-0.003
249.00	-0.001
248.50	-0.001
248.00	0.002
247.50	0.001
247.00	0.002
246.50	0.000
246.00	0.001
245.50	-0.005
245.00	0.000
244.50	-0.001
244.00	0.000
243.50	0.000
243.00	0.000
242.50	0.000
242.00	-0.001
241.50	0.001
241.00	0.002
240.50	0.001
240.00	-0.002
239.50	0.000
239.00	0.000
238.50	0.003
238.00	0.001
237.50	-0.002
237.00	0.001
236.50	0.001
236.00	-0.003
235.50	0.000
235.00	0.000
234.50	0.001
234.00	0.001
233.50	0.001
233.00	-0.001
232.50	0.001
232.00	-0.002
231.50	-0.001
231.00	-0.003
230.50	0.000
230.00	0.001
229.50	-0.002
229.00	0.000
228.50	0.002
228.00	-0.002
227.50	0.002
227.00	0.004
226.50	-0.004
226.00	-0.003
225.50	-0.001
225.00	0.001
224.50	0.002
224.00	0.003
223.50	0.002
223.00	0.001
222.50	-0.003
222.00	-0.003
221.50	0.001
221.00	-0.003
220.50	0.001
220.00	-0.001
219.50	-0.002
219.00	-0.006
218.50	0.006
218.00	0.001
217.50	-0.004
217.00	-0.002
216.50	-0.004
216.00	0.000
215.50	0.001
215.00	0.001
214.50	-0.001
214.00	-0.003
213.50	-0.002
213.00	0.001
212.50	0.003
212.00	0.001
211.50	-0.002
211.00	-0.001
210.50	-0.001
210.00	0.006
209.50	-0.001
209.00	0.004
208.50	-0.001
208.00	-0.001
207.50	0.000
207.00	-0.001
206.50	-0.003
206.00	0.003
205.50	-0.008
205.00	0.001
204.50	0.000
204.00	0.008
203.50	0.002
203.00	-0.004
202.50	-0.009
202.00	0.002
201.50	0.004
201.00	0.002
200.50	-0.001
200.00	0.003

