Sample:	'UV-20260820-1-DMSO_0.000075(MeCN)
File name:	UV-20260820-1-DMSO_0.000075(MeCN).UDS
Run Date:	'15:51:16, 08/13/2026
Operator:	DELL
Comment:	'

Instrument
Model:	U-3900H Spectrophotometer
Serial Number:	'2192-001
ROM Version:	2J25300 07

Instrument Parameters
Measurement Type:	Wavelength Scan
Data Mode:	Abs
Start Wavelength:	800.00 nm
End Wavelength:	200.00 nm
Scan Speed:	300 nm/min
Sampling Interval:	0.50 nm
Delay:	0 s
Cycle Time:	0.1 min
Replicates:	1
Auto Zero before each run:	Off
Slit Width:	0.5 nm
PMT Voltage:	Auto
Lamp Change Mode:	Auto
Lamp Change Wavelength:	325.00 nm
Baseline Correction:	User 1(test_1)
High Resolution:	On
D2 Lamp:	On
WI Lamp:	On
R/S Reverse:	Off
Path Correct:	On
Path Length:	10.0 mm

Data Points
nm	Abs
800.00	-0.001
799.50	0.000
799.00	0.000
798.50	-0.003
798.00	-0.004
797.50	0.007
797.00	0.005
796.50	-0.003
796.00	0.000
795.50	0.006
795.00	-0.001
794.50	0.002
794.00	0.000
793.50	-0.003
793.00	-0.004
792.50	0.004
792.00	-0.001
791.50	-0.002
791.00	-0.002
790.50	-0.001
790.00	0.002
789.50	0.000
789.00	0.002
788.50	-0.005
788.00	0.004
787.50	-0.003
787.00	0.000
786.50	-0.002
786.00	0.001
785.50	0.000
785.00	0.000
784.50	0.000
784.00	0.001
783.50	0.000
783.00	0.003
782.50	-0.007
782.00	0.000
781.50	0.002
781.00	0.000
780.50	-0.002
780.00	0.003
779.50	0.000
779.00	0.001
778.50	-0.003
778.00	0.001
777.50	-0.001
777.00	-0.001
776.50	0.002
776.00	-0.004
775.50	0.000
775.00	0.004
774.50	-0.003
774.00	-0.005
773.50	-0.004
773.00	-0.004
772.50	-0.001
772.00	0.002
771.50	-0.003
771.00	0.002
770.50	0.000
770.00	0.000
769.50	-0.001
769.00	-0.003
768.50	0.000
768.00	0.002
767.50	-0.003
767.00	0.003
766.50	-0.002
766.00	-0.001
765.50	-0.003
765.00	0.004
764.50	-0.004
764.00	-0.001
763.50	0.002
763.00	0.003
762.50	0.000
762.00	-0.003
761.50	0.001
761.00	-0.002
760.50	0.002
760.00	0.000
759.50	-0.001
759.00	-0.001
758.50	0.002
758.00	-0.003
757.50	-0.003
757.00	0.001
756.50	-0.002
756.00	-0.004
755.50	0.004
755.00	-0.002
754.50	0.003
754.00	0.000
753.50	-0.001
753.00	0.000
752.50	0.003
752.00	-0.002
751.50	0.003
751.00	0.003
750.50	0.002
750.00	-0.001
749.50	-0.001
749.00	-0.002
748.50	-0.002
748.00	0.002
747.50	0.003
747.00	0.000
746.50	-0.001
746.00	-0.002
745.50	0.001
745.00	-0.002
744.50	0.001
744.00	-0.005
743.50	-0.002
743.00	0.001
742.50	0.001
742.00	0.000
741.50	-0.002
741.00	0.001
740.50	-0.004
740.00	-0.001
739.50	-0.001
739.00	-0.001
738.50	-0.001
738.00	0.000
737.50	0.000
737.00	-0.003
736.50	0.004
736.00	-0.003
735.50	-0.004
735.00	-0.002
734.50	-0.002
734.00	0.001
733.50	-0.007
733.00	-0.002
732.50	0.002
732.00	-0.002
731.50	-0.005
731.00	0.003
730.50	0.001
730.00	0.002
729.50	0.001
729.00	-0.002
728.50	0.003
728.00	0.001
727.50	0.002
727.00	0.001
726.50	0.003
726.00	-0.001
725.50	-0.004
725.00	0.002
724.50	-0.001
724.00	-0.001
723.50	0.002
723.00	-0.001
722.50	-0.002
722.00	0.001
721.50	0.000
721.00	0.000
720.50	0.001
720.00	-0.004
719.50	0.000
719.00	-0.003
718.50	0.000
718.00	-0.002
717.50	0.000
717.00	-0.006
716.50	0.003
716.00	-0.001
715.50	0.004
715.00	-0.003
714.50	0.003
714.00	-0.005
713.50	0.001
713.00	-0.004
712.50	-0.001
712.00	-0.003
711.50	-0.002
711.00	0.001
710.50	0.002
710.00	0.002
709.50	0.001
709.00	0.001
708.50	-0.002
708.00	-0.001
707.50	-0.004
707.00	0.001
706.50	0.000
706.00	-0.003
705.50	-0.001
705.00	-0.001
704.50	-0.001
704.00	-0.001
703.50	-0.002
703.00	0.000
702.50	-0.003
702.00	0.000
701.50	0.000
701.00	-0.001
700.50	0.000
700.00	-0.002
699.50	0.000
699.00	-0.001
698.50	0.001
698.00	0.000
697.50	0.000
697.00	0.000
696.50	-0.002
696.00	-0.001
695.50	0.001
695.00	0.000
694.50	0.001
694.00	0.002
693.50	0.002
693.00	-0.002
692.50	-0.003
692.00	0.003
691.50	0.001
691.00	0.002
690.50	-0.001
690.00	-0.002
689.50	0.001
689.00	0.001
688.50	0.000
688.00	0.000
687.50	-0.001
687.00	-0.002
686.50	0.000
686.00	0.001
685.50	-0.001
685.00	-0.004
684.50	0.000
684.00	-0.001
683.50	-0.004
683.00	-0.004
682.50	-0.001
682.00	-0.002
681.50	-0.001
681.00	-0.001
680.50	0.000
680.00	-0.002
679.50	0.000
679.00	-0.001
678.50	-0.002
678.00	0.000
677.50	0.001
677.00	-0.002
676.50	-0.002
676.00	-0.001
675.50	0.000
675.00	0.000
674.50	-0.002
674.00	0.000
673.50	-0.002
673.00	-0.002
672.50	0.000
672.00	0.002
671.50	0.000
671.00	-0.001
670.50	0.001
670.00	0.001
669.50	-0.003
669.00	0.001
668.50	-0.001
668.00	-0.001
667.50	0.000
667.00	0.000
666.50	-0.002
666.00	0.000
665.50	0.001
665.00	0.000
664.50	0.002
664.00	-0.002
663.50	-0.001
663.00	0.000
662.50	0.002
662.00	0.001
661.50	0.000
661.00	0.003
660.50	0.000
660.00	-0.001
659.50	0.000
659.00	0.002
658.50	-0.003
658.00	-0.001
657.50	-0.001
657.00	0.002
656.50	0.000
656.00	0.001
655.50	-0.002
655.00	0.000
654.50	0.000
654.00	0.002
653.50	0.001
653.00	0.000
652.50	-0.001
652.00	0.001
651.50	-0.002
651.00	-0.002
650.50	0.000
650.00	-0.003
649.50	0.000
649.00	0.000
648.50	0.001
648.00	0.000
647.50	-0.001
647.00	0.000
646.50	0.000
646.00	0.000
645.50	-0.002
645.00	-0.002
644.50	-0.001
644.00	0.000
643.50	-0.001
643.00	0.001
642.50	-0.003
642.00	0.000
641.50	0.000
641.00	-0.002
640.50	0.001
640.00	0.000
639.50	0.002
639.00	0.000
638.50	0.000
638.00	0.000
637.50	0.000
637.00	0.000
636.50	0.000
636.00	-0.002
635.50	0.000
635.00	0.000
634.50	-0.001
634.00	0.001
633.50	0.001
633.00	-0.002
632.50	0.000
632.00	-0.003
631.50	-0.002
631.00	0.000
630.50	-0.001
630.00	0.000
629.50	-0.002
629.00	-0.001
628.50	0.001
628.00	0.003
627.50	0.000
627.00	-0.001
626.50	0.001
626.00	-0.002
625.50	-0.004
625.00	-0.002
624.50	0.000
624.00	0.000
623.50	-0.001
623.00	0.001
622.50	-0.003
622.00	-0.002
621.50	0.000
621.00	0.001
620.50	-0.001
620.00	0.000
619.50	-0.001
619.00	0.002
618.50	0.001
618.00	0.001
617.50	0.002
617.00	0.000
616.50	-0.001
616.00	-0.002
615.50	0.001
615.00	0.000
614.50	-0.003
614.00	0.002
613.50	0.000
613.00	0.000
612.50	-0.001
612.00	-0.001
611.50	0.000
611.00	0.000
610.50	-0.001
610.00	-0.003
609.50	0.002
609.00	-0.001
608.50	0.001
608.00	-0.002
607.50	-0.002
607.00	-0.001
606.50	0.001
606.00	0.002
605.50	-0.001
605.00	0.000
604.50	-0.004
604.00	0.001
603.50	-0.003
603.00	0.002
602.50	0.000
602.00	-0.001
601.50	0.000
601.00	0.000
600.50	-0.005
600.00	-0.001
599.50	0.000
599.00	0.003
598.50	0.004
598.00	0.000
597.50	-0.005
597.00	0.001
596.50	-0.001
596.00	-0.002
595.50	0.000
595.00	-0.002
594.50	0.002
594.00	-0.008
593.50	-0.004
593.00	-0.001
592.50	-0.001
592.00	0.001
591.50	0.000
591.00	-0.002
590.50	0.000
590.00	-0.001
589.50	0.000
589.00	0.000
588.50	0.001
588.00	-0.004
587.50	0.002
587.00	-0.005
586.50	0.004
586.00	-0.002
585.50	0.000
585.00	0.000
584.50	-0.004
584.00	-0.004
583.50	0.004
583.00	0.002
582.50	-0.002
582.00	0.000
581.50	-0.002
581.00	0.001
580.50	-0.007
580.00	-0.005
579.50	-0.001
579.00	-0.001
578.50	0.001
578.00	-0.002
577.50	-0.002
577.00	0.001
576.50	-0.002
576.00	0.004
575.50	-0.001
575.00	-0.002
574.50	-0.003
574.00	0.003
573.50	-0.001
573.00	-0.002
572.50	0.001
572.00	-0.001
571.50	0.000
571.00	-0.001
570.50	0.000
570.00	0.000
569.50	0.002
569.00	-0.002
568.50	-0.002
568.00	-0.002
567.50	-0.001
567.00	0.003
566.50	-0.001
566.00	-0.001
565.50	-0.002
565.00	-0.003
564.50	0.002
564.00	0.001
563.50	-0.001
563.00	0.001
562.50	0.002
562.00	0.002
561.50	0.002
561.00	-0.001
560.50	0.000
560.00	0.000
559.50	0.000
559.00	0.001
558.50	0.000
558.00	-0.001
557.50	0.001
557.00	-0.001
556.50	0.000
556.00	-0.002
555.50	-0.002
555.00	0.000
554.50	-0.001
554.00	-0.003
553.50	-0.001
553.00	0.001
552.50	-0.002
552.00	-0.002
551.50	-0.001
551.00	-0.002
550.50	-0.001
550.00	0.000
549.50	-0.001
549.00	0.000
548.50	-0.002
548.00	-0.003
547.50	-0.001
547.00	-0.001
546.50	-0.003
546.00	-0.002
545.50	0.001
545.00	0.001
544.50	0.000
544.00	0.000
543.50	-0.003
543.00	-0.001
542.50	-0.001
542.00	-0.002
541.50	-0.003
541.00	0.000
540.50	0.001
540.00	-0.001
539.50	0.000
539.00	0.000
538.50	-0.001
538.00	0.000
537.50	0.001
537.00	-0.002
536.50	-0.001
536.00	0.001
535.50	-0.002
535.00	-0.002
534.50	0.001
534.00	0.001
533.50	-0.001
533.00	-0.001
532.50	0.000
532.00	-0.001
531.50	-0.001
531.00	0.000
530.50	0.002
530.00	0.000
529.50	0.000
529.00	-0.003
528.50	0.002
528.00	-0.001
527.50	0.000
527.00	0.001
526.50	0.001
526.00	0.000
525.50	0.001
525.00	-0.001
524.50	-0.002
524.00	-0.002
523.50	-0.001
523.00	0.000
522.50	0.001
522.00	-0.002
521.50	-0.002
521.00	0.000
520.50	-0.002
520.00	-0.003
519.50	0.000
519.00	0.001
518.50	-0.002
518.00	0.000
517.50	-0.001
517.00	0.000
516.50	0.000
516.00	0.001
515.50	0.000
515.00	-0.001
514.50	-0.002
514.00	0.000
513.50	-0.001
513.00	-0.003
512.50	0.000
512.00	-0.003
511.50	-0.001
511.00	0.002
510.50	-0.002
510.00	-0.001
509.50	-0.003
509.00	-0.001
508.50	0.000
508.00	-0.001
507.50	-0.002
507.00	-0.001
506.50	-0.001
506.00	-0.002
505.50	0.000
505.00	0.000
504.50	-0.001
504.00	-0.002
503.50	-0.001
503.00	-0.001
502.50	-0.001
502.00	0.000
501.50	0.000
501.00	0.001
500.50	-0.001
500.00	0.000
499.50	0.000
499.00	0.000
498.50	-0.002
498.00	-0.001
497.50	0.000
497.00	0.000
496.50	-0.001
496.00	-0.002
495.50	0.000
495.00	0.001
494.50	-0.002
494.00	0.002
493.50	0.001
493.00	-0.001
492.50	-0.003
492.00	-0.001
491.50	0.002
491.00	0.000
490.50	0.001
490.00	0.000
489.50	-0.001
489.00	0.002
488.50	0.001
488.00	0.000
487.50	-0.001
487.00	0.002
486.50	0.001
486.00	-0.001
485.50	-0.001
485.00	-0.002
484.50	0.000
484.00	0.000
483.50	0.001
483.00	-0.002
482.50	-0.002
482.00	-0.002
481.50	-0.003
481.00	-0.002
480.50	-0.002
480.00	0.000
479.50	-0.001
479.00	-0.001
478.50	-0.001
478.00	-0.002
477.50	-0.001
477.00	-0.001
476.50	0.001
476.00	0.002
475.50	-0.003
475.00	-0.003
474.50	0.001
474.00	0.000
473.50	-0.003
473.00	-0.002
472.50	-0.003
472.00	-0.001
471.50	0.002
471.00	0.002
470.50	-0.003
470.00	-0.001
469.50	-0.001
469.00	0.000
468.50	0.001
468.00	0.001
467.50	-0.001
467.00	0.002
466.50	-0.001
466.00	-0.002
465.50	0.000
465.00	0.000
464.50	-0.001
464.00	-0.001
463.50	0.000
463.00	-0.001
462.50	-0.002
462.00	-0.001
461.50	-0.002
461.00	-0.001
460.50	0.000
460.00	0.000
459.50	0.000
459.00	-0.002
458.50	0.000
458.00	0.000
457.50	-0.002
457.00	0.001
456.50	-0.001
456.00	-0.002
455.50	-0.002
455.00	-0.003
454.50	-0.002
454.00	-0.001
453.50	0.003
453.00	-0.001
452.50	-0.001
452.00	0.002
451.50	0.002
451.00	-0.001
450.50	0.000
450.00	-0.001
449.50	-0.002
449.00	0.000
448.50	-0.001
448.00	-0.003
447.50	-0.002
447.00	0.002
446.50	0.000
446.00	0.001
445.50	-0.003
445.00	-0.003
444.50	0.000
444.00	-0.002
443.50	0.000
443.00	-0.002
442.50	-0.002
442.00	0.000
441.50	-0.001
441.00	0.001
440.50	-0.004
440.00	0.003
439.50	-0.001
439.00	0.002
438.50	0.002
438.00	0.002
437.50	-0.002
437.00	0.000
436.50	0.001
436.00	0.000
435.50	0.002
435.00	-0.001
434.50	-0.002
434.00	-0.003
433.50	-0.003
433.00	-0.003
432.50	-0.001
432.00	0.001
431.50	0.002
431.00	0.000
430.50	0.000
430.00	-0.003
429.50	-0.002
429.00	0.001
428.50	-0.001
428.00	0.000
427.50	0.000
427.00	-0.002
426.50	-0.002
426.00	-0.003
425.50	0.001
425.00	-0.002
424.50	0.000
424.00	0.002
423.50	0.002
423.00	0.000
422.50	-0.004
422.00	-0.001
421.50	0.000
421.00	0.000
420.50	-0.004
420.00	0.003
419.50	-0.002
419.00	0.000
418.50	0.001
418.00	0.000
417.50	-0.001
417.00	0.003
416.50	-0.001
416.00	0.001
415.50	-0.001
415.00	0.000
414.50	-0.003
414.00	0.001
413.50	-0.002
413.00	-0.003
412.50	0.000
412.00	0.001
411.50	0.000
411.00	0.003
410.50	0.000
410.00	0.000
409.50	-0.002
409.00	-0.002
408.50	-0.003
408.00	0.001
407.50	-0.001
407.00	-0.001
406.50	-0.001
406.00	0.004
405.50	0.002
405.00	0.002
404.50	0.002
404.00	0.001
403.50	0.003
403.00	0.002
402.50	-0.001
402.00	-0.001
401.50	-0.001
401.00	0.002
400.50	0.002
400.00	0.000
399.50	-0.002
399.00	0.002
398.50	-0.003
398.00	0.003
397.50	0.000
397.00	0.000
396.50	0.000
396.00	0.001
395.50	0.000
395.00	-0.001
394.50	-0.002
394.00	0.003
393.50	0.002
393.00	0.001
392.50	0.001
392.00	0.003
391.50	0.000
391.00	-0.003
390.50	0.004
390.00	-0.001
389.50	-0.001
389.00	-0.003
388.50	0.003
388.00	-0.002
387.50	0.003
387.00	-0.002
386.50	0.004
386.00	-0.004
385.50	0.000
385.00	-0.003
384.50	0.005
384.00	-0.001
383.50	0.003
383.00	0.002
382.50	-0.004
382.00	-0.003
381.50	-0.001
381.00	0.000
380.50	0.001
380.00	-0.002
379.50	0.003
379.00	0.004
378.50	0.001
378.00	-0.003
377.50	-0.006
377.00	0.003
376.50	0.000
376.00	0.007
375.50	-0.001
375.00	0.006
374.50	0.003
374.00	-0.001
373.50	0.000
373.00	0.002
372.50	0.003
372.00	0.005
371.50	-0.003
371.00	-0.001
370.50	-0.003
370.00	0.002
369.50	0.000
369.00	0.000
368.50	-0.005
368.00	0.001
367.50	0.000
367.00	0.003
366.50	0.002
366.00	-0.004
365.50	-0.001
365.00	0.005
364.50	0.000
364.00	0.001
363.50	-0.003
363.00	-0.009
362.50	-0.005
362.00	-0.003
361.50	0.002
361.00	-0.002
360.50	-0.001
360.00	-0.005
359.50	0.001
359.00	0.002
358.50	0.001
358.00	-0.001
357.50	0.002
357.00	0.000
356.50	-0.001
356.00	0.002
355.50	0.001
355.00	-0.003
354.50	-0.002
354.00	-0.003
353.50	0.005
353.00	0.000
352.50	0.001
352.00	-0.001
351.50	0.011
351.00	0.004
350.50	0.002
350.00	0.002
349.50	0.001
349.00	0.000
348.50	0.002
348.00	-0.003
347.50	-0.002
347.00	-0.002
346.50	0.000
346.00	0.001
345.50	0.007
345.00	-0.003
344.50	-0.001
344.00	0.007
343.50	0.001
343.00	-0.002
342.50	0.006
342.00	-0.002
341.50	-0.004
341.00	0.004
340.50	0.004
340.00	-0.001
339.50	-0.001
339.00	0.002
338.50	0.001
338.00	-0.001
337.50	-0.004
337.00	0.002
336.50	0.010
336.00	0.001
335.50	-0.004
335.00	0.000
334.50	0.008
334.00	0.005
333.50	0.003
333.00	0.001
332.50	-0.004
332.00	0.000
331.50	0.006
331.00	-0.001
330.50	0.009
330.00	0.002
329.50	-0.002
329.00	-0.001
328.50	-0.002
328.00	-0.001
327.50	-0.003
327.00	-0.003
326.50	0.012
326.00	0.007
325.50	-0.002
325.00	0.002
324.50	-0.003
324.00	0.000
323.50	0.000
323.00	0.003
322.50	0.001
322.00	-0.001
321.50	0.004
321.00	0.003
320.50	0.000
320.00	0.001
319.50	0.001
319.00	0.002
318.50	-0.001
318.00	0.001
317.50	-0.001
317.00	-0.001
316.50	0.003
316.00	0.002
315.50	-0.002
315.00	0.000
314.50	0.003
314.00	-0.002
313.50	-0.001
313.00	0.003
312.50	0.005
312.00	0.004
311.50	0.003
311.00	0.001
310.50	-0.003
310.00	0.002
309.50	0.002
309.00	0.003
308.50	-0.002
308.00	-0.001
307.50	-0.002
307.00	-0.002
306.50	0.003
306.00	0.001
305.50	0.001
305.00	0.004
304.50	0.003
304.00	0.003
303.50	0.006
303.00	0.000
302.50	0.005
302.00	0.001
301.50	0.000
301.00	0.000
300.50	0.000
300.00	-0.001
299.50	0.006
299.00	0.006
298.50	-0.002
298.00	-0.002
297.50	0.001
297.00	-0.002
296.50	0.002
296.00	0.004
295.50	-0.001
295.00	-0.001
294.50	0.004
294.00	0.004
293.50	0.000
293.00	0.007
292.50	0.005
292.00	0.002
291.50	0.006
291.00	0.000
290.50	0.003
290.00	0.002
289.50	0.002
289.00	-0.001
288.50	0.001
288.00	0.001
287.50	0.001
287.00	0.004
286.50	0.007
286.00	0.005
285.50	0.006
285.00	0.000
284.50	0.008
284.00	0.003
283.50	0.003
283.00	0.004
282.50	0.003
282.00	0.006
281.50	0.009
281.00	0.004
280.50	0.007
280.00	0.006
279.50	0.004
279.00	0.004
278.50	0.007
278.00	0.006
277.50	0.007
277.00	0.007
276.50	0.005
276.00	0.009
275.50	0.007
275.00	0.003
274.50	0.007
274.00	0.005
273.50	0.004
273.00	0.008
272.50	0.007
272.00	0.007
271.50	0.002
271.00	0.006
270.50	0.006
270.00	0.012
269.50	0.007
269.00	0.010
268.50	0.005
268.00	0.012
267.50	0.008
267.00	0.008
266.50	0.005
266.00	0.006
265.50	0.009
265.00	0.007
264.50	0.007
264.00	0.006
263.50	0.008
263.00	0.007
262.50	0.009
262.00	0.006
261.50	0.006
261.00	0.007
260.50	0.006
260.00	0.008
259.50	0.007
259.00	0.007
258.50	0.007
258.00	0.010
257.50	0.008
257.00	0.006
256.50	0.008
256.00	0.006
255.50	0.006
255.00	0.005
254.50	0.004
254.00	0.006
253.50	0.007
253.00	0.010
252.50	0.010
252.00	0.009
251.50	0.007
251.00	0.006
250.50	0.006
250.00	0.008
249.50	0.007
249.00	0.007
248.50	0.006
248.00	0.010
247.50	0.006
247.00	0.012
246.50	0.009
246.00	0.011
245.50	0.009
245.00	0.010
244.50	0.009
244.00	0.011
243.50	0.012
243.00	0.011
242.50	0.015
242.00	0.015
241.50	0.013
241.00	0.015
240.50	0.018
240.00	0.015
239.50	0.016
239.00	0.017
238.50	0.017
238.00	0.018
237.50	0.020
237.00	0.020
236.50	0.023
236.00	0.019
235.50	0.019
235.00	0.023
234.50	0.025
234.00	0.029
233.50	0.029
233.00	0.029
232.50	0.030
232.00	0.033
231.50	0.036
231.00	0.033
230.50	0.037
230.00	0.044
229.50	0.038
229.00	0.044
228.50	0.044
228.00	0.049
227.50	0.052
227.00	0.056
226.50	0.053
226.00	0.060
225.50	0.062
225.00	0.067
224.50	0.070
224.00	0.073
223.50	0.075
223.00	0.079
222.50	0.077
222.00	0.084
221.50	0.087
221.00	0.086
220.50	0.089
220.00	0.087
219.50	0.091
219.00	0.092
218.50	0.096
218.00	0.094
217.50	0.090
217.00	0.093
216.50	0.092
216.00	0.095
215.50	0.092
215.00	0.089
214.50	0.088
214.00	0.092
213.50	0.088
213.00	0.085
212.50	0.082
212.00	0.085
211.50	0.085
211.00	0.085
210.50	0.089
210.00	0.087
209.50	0.089
209.00	0.098
208.50	0.101
208.00	0.103
207.50	0.106
207.00	0.120
206.50	0.116
206.00	0.136
205.50	0.139
205.00	0.152
204.50	0.170
204.00	0.188
203.50	0.200
203.00	0.211
202.50	0.226
202.00	0.246
201.50	0.254
201.00	0.264
200.50	0.270
200.00	0.298

