Sample:	'UV-20260820-1-DMSO_0.000413(MeCN)
File name:	UV-20260820-1-DMSO_0.000413(MeCN).UDS
Run Date:	'16:09:02, 08/13/2026
Operator:	DELL
Comment:	'

Instrument
Model:	U-3900H Spectrophotometer
Serial Number:	'2192-001
ROM Version:	2J25300 07

Instrument Parameters
Measurement Type:	Wavelength Scan
Data Mode:	Abs
Start Wavelength:	800.00 nm
End Wavelength:	200.00 nm
Scan Speed:	300 nm/min
Sampling Interval:	0.50 nm
Delay:	0 s
Cycle Time:	0.1 min
Replicates:	1
Auto Zero before each run:	Off
Slit Width:	0.5 nm
PMT Voltage:	Auto
Lamp Change Mode:	Auto
Lamp Change Wavelength:	325.00 nm
Baseline Correction:	User 1(test_1)
High Resolution:	On
D2 Lamp:	On
WI Lamp:	On
R/S Reverse:	Off
Path Correct:	On
Path Length:	10.0 mm

Data Points
nm	Abs
800.00	-0.003
799.50	0.001
799.00	-0.003
798.50	-0.002
798.00	-0.003
797.50	0.005
797.00	0.007
796.50	-0.002
796.00	0.000
795.50	0.006
795.00	-0.003
794.50	0.000
794.00	-0.001
793.50	-0.002
793.00	0.000
792.50	0.002
792.00	-0.002
791.50	-0.001
791.00	0.001
790.50	-0.001
790.00	0.005
789.50	-0.005
789.00	0.006
788.50	-0.006
788.00	0.006
787.50	-0.003
787.00	0.002
786.50	-0.001
786.00	0.000
785.50	0.005
785.00	0.005
784.50	-0.002
784.00	0.000
783.50	0.000
783.00	0.003
782.50	-0.001
782.00	-0.004
781.50	0.005
781.00	-0.002
780.50	-0.004
780.00	0.000
779.50	0.000
779.00	0.000
778.50	-0.001
778.00	0.000
777.50	0.001
777.00	0.002
776.50	0.003
776.00	-0.001
775.50	0.003
775.00	0.002
774.50	-0.003
774.00	-0.002
773.50	-0.002
773.00	-0.002
772.50	0.001
772.00	0.002
771.50	-0.002
771.00	0.003
770.50	0.003
770.00	0.003
769.50	0.004
769.00	-0.001
768.50	0.001
768.00	0.001
767.50	0.001
767.00	-0.003
766.50	-0.003
766.00	-0.004
765.50	-0.002
765.00	0.004
764.50	-0.003
764.00	0.003
763.50	0.000
763.00	0.001
762.50	-0.002
762.00	0.001
761.50	0.004
761.00	0.000
760.50	-0.001
760.00	0.002
759.50	0.000
759.00	0.001
758.50	0.002
758.00	-0.002
757.50	0.000
757.00	-0.001
756.50	0.000
756.00	-0.001
755.50	-0.003
755.00	0.000
754.50	0.001
754.00	0.005
753.50	-0.001
753.00	0.001
752.50	0.004
752.00	-0.001
751.50	0.000
751.00	0.003
750.50	-0.003
750.00	0.001
749.50	0.001
749.00	0.002
748.50	0.000
748.00	0.000
747.50	0.000
747.00	-0.001
746.50	0.001
746.00	0.000
745.50	0.001
745.00	0.000
744.50	0.005
744.00	-0.001
743.50	0.001
743.00	0.001
742.50	-0.001
742.00	0.000
741.50	0.002
741.00	-0.001
740.50	-0.002
740.00	0.000
739.50	0.000
739.00	0.000
738.50	0.000
738.00	-0.001
737.50	0.002
737.00	-0.001
736.50	0.002
736.00	-0.005
735.50	0.001
735.00	0.000
734.50	0.000
734.00	-0.003
733.50	0.000
733.00	-0.005
732.50	0.004
732.00	0.004
731.50	-0.003
731.00	0.004
730.50	0.003
730.00	0.005
729.50	0.001
729.00	0.000
728.50	-0.001
728.00	0.000
727.50	0.002
727.00	0.003
726.50	0.004
726.00	-0.003
725.50	-0.003
725.00	0.003
724.50	-0.002
724.00	0.000
723.50	0.004
723.00	-0.002
722.50	0.002
722.00	0.000
721.50	-0.002
721.00	-0.001
720.50	0.003
720.00	0.001
719.50	-0.003
719.00	-0.003
718.50	-0.001
718.00	0.002
717.50	0.003
717.00	-0.003
716.50	0.002
716.00	0.000
715.50	0.000
715.00	-0.001
714.50	0.001
714.00	-0.001
713.50	0.002
713.00	0.001
712.50	-0.004
712.00	0.003
711.50	-0.002
711.00	0.002
710.50	0.000
710.00	0.003
709.50	0.001
709.00	0.002
708.50	0.000
708.00	-0.001
707.50	-0.001
707.00	-0.001
706.50	0.000
706.00	-0.001
705.50	0.003
705.00	0.001
704.50	0.001
704.00	0.001
703.50	0.004
703.00	0.000
702.50	0.002
702.00	0.001
701.50	0.002
701.00	0.001
700.50	0.000
700.00	-0.002
699.50	-0.001
699.00	0.000
698.50	0.001
698.00	0.002
697.50	0.001
697.00	0.003
696.50	-0.001
696.00	-0.002
695.50	0.002
695.00	0.000
694.50	-0.001
694.00	0.002
693.50	0.002
693.00	-0.001
692.50	-0.003
692.00	0.000
691.50	0.003
691.00	0.001
690.50	0.001
690.00	-0.001
689.50	0.000
689.00	0.002
688.50	-0.001
688.00	-0.001
687.50	-0.001
687.00	-0.003
686.50	0.005
686.00	0.002
685.50	0.001
685.00	-0.001
684.50	0.003
684.00	0.001
683.50	-0.001
683.00	-0.002
682.50	0.002
682.00	0.001
681.50	0.002
681.00	0.001
680.50	0.003
680.00	0.001
679.50	0.002
679.00	-0.001
678.50	0.001
678.00	0.001
677.50	0.002
677.00	0.002
676.50	-0.001
676.00	0.001
675.50	0.000
675.00	0.002
674.50	-0.002
674.00	-0.001
673.50	0.001
673.00	0.001
672.50	0.001
672.00	0.000
671.50	0.000
671.00	0.004
670.50	0.002
670.00	0.002
669.50	0.000
669.00	0.002
668.50	0.001
668.00	0.001
667.50	-0.001
667.00	0.002
666.50	0.000
666.00	0.001
665.50	0.001
665.00	0.000
664.50	0.001
664.00	0.002
663.50	0.000
663.00	0.001
662.50	0.004
662.00	0.002
661.50	0.002
661.00	0.003
660.50	-0.001
660.00	0.000
659.50	-0.002
659.00	0.003
658.50	-0.002
658.00	0.000
657.50	0.001
657.00	0.002
656.50	0.003
656.00	0.000
655.50	-0.001
655.00	-0.001
654.50	0.001
654.00	0.002
653.50	0.001
653.00	0.000
652.50	0.000
652.00	0.001
651.50	0.000
651.00	0.001
650.50	-0.001
650.00	0.000
649.50	0.000
649.00	0.001
648.50	0.002
648.00	0.002
647.50	0.001
647.00	0.001
646.50	0.000
646.00	0.003
645.50	-0.003
645.00	0.000
644.50	0.000
644.00	0.001
643.50	0.002
643.00	0.002
642.50	0.000
642.00	0.003
641.50	0.003
641.00	0.001
640.50	0.001
640.00	0.001
639.50	0.000
639.00	0.003
638.50	0.000
638.00	0.002
637.50	0.001
637.00	0.001
636.50	0.002
636.00	0.000
635.50	0.002
635.00	0.004
634.50	0.000
634.00	0.001
633.50	0.002
633.00	0.000
632.50	0.001
632.00	-0.001
631.50	0.000
631.00	0.003
630.50	0.001
630.00	0.002
629.50	-0.001
629.00	0.001
628.50	0.002
628.00	0.001
627.50	0.001
627.00	0.000
626.50	0.002
626.00	0.003
625.50	-0.001
625.00	0.001
624.50	0.002
624.00	0.002
623.50	0.001
623.00	0.001
622.50	-0.001
622.00	0.000
621.50	0.000
621.00	0.001
620.50	0.005
620.00	-0.001
619.50	0.000
619.00	0.002
618.50	0.001
618.00	0.002
617.50	0.004
617.00	0.000
616.50	-0.001
616.00	0.003
615.50	0.000
615.00	0.000
614.50	0.000
614.00	0.002
613.50	0.000
613.00	0.001
612.50	0.000
612.00	0.002
611.50	0.000
611.00	0.004
610.50	0.001
610.00	0.000
609.50	0.002
609.00	0.000
608.50	0.004
608.00	-0.001
607.50	-0.001
607.00	0.000
606.50	0.002
606.00	0.002
605.50	0.000
605.00	0.001
604.50	-0.001
604.00	0.001
603.50	-0.003
603.00	0.001
602.50	0.002
602.00	0.002
601.50	0.000
601.00	0.001
600.50	-0.001
600.00	-0.001
599.50	0.001
599.00	-0.001
598.50	0.004
598.00	0.008
597.50	-0.002
597.00	0.003
596.50	-0.002
596.00	-0.004
595.50	0.005
595.00	-0.002
594.50	0.003
594.00	-0.007
593.50	0.000
593.00	-0.003
592.50	0.001
592.00	0.002
591.50	0.000
591.00	-0.002
590.50	-0.001
590.00	0.003
589.50	0.000
589.00	0.000
588.50	0.003
588.00	-0.001
587.50	0.003
587.00	-0.002
586.50	0.000
586.00	0.000
585.50	0.002
585.00	0.000
584.50	-0.003
584.00	-0.001
583.50	0.002
583.00	0.001
582.50	0.001
582.00	0.000
581.50	-0.001
581.00	0.002
580.50	0.002
580.00	-0.002
579.50	0.002
579.00	-0.001
578.50	0.005
578.00	0.000
577.50	0.000
577.00	0.000
576.50	-0.002
576.00	0.002
575.50	0.000
575.00	0.000
574.50	-0.001
574.00	0.001
573.50	-0.001
573.00	0.001
572.50	0.002
572.00	-0.001
571.50	0.003
571.00	0.001
570.50	0.004
570.00	0.001
569.50	0.001
569.00	-0.001
568.50	-0.002
568.00	-0.001
567.50	0.001
567.00	0.002
566.50	0.003
566.00	0.000
565.50	0.001
565.00	-0.002
564.50	0.000
564.00	0.003
563.50	0.000
563.00	0.002
562.50	0.000
562.00	0.004
561.50	0.003
561.00	0.002
560.50	0.004
560.00	-0.002
559.50	0.000
559.00	0.002
558.50	0.002
558.00	0.000
557.50	0.001
557.00	0.001
556.50	0.001
556.00	-0.001
555.50	-0.001
555.00	0.003
554.50	-0.001
554.00	-0.001
553.50	0.002
553.00	0.001
552.50	-0.001
552.00	0.000
551.50	0.002
551.00	0.001
550.50	0.001
550.00	0.002
549.50	-0.001
549.00	0.001
548.50	-0.001
548.00	0.001
547.50	0.000
547.00	0.000
546.50	-0.002
546.00	0.000
545.50	0.001
545.00	0.001
544.50	0.000
544.00	0.001
543.50	-0.002
543.00	0.000
542.50	0.002
542.00	0.002
541.50	0.000
541.00	0.002
540.50	0.001
540.00	-0.001
539.50	0.001
539.00	0.000
538.50	0.000
538.00	0.001
537.50	0.003
537.00	0.000
536.50	0.000
536.00	0.001
535.50	0.000
535.00	0.001
534.50	0.003
534.00	0.002
533.50	0.001
533.00	0.000
532.50	0.000
532.00	0.001
531.50	0.002
531.00	-0.001
530.50	0.002
530.00	0.001
529.50	0.001
529.00	-0.001
528.50	0.001
528.00	-0.001
527.50	0.002
527.00	0.003
526.50	0.001
526.00	0.002
525.50	0.002
525.00	0.003
524.50	0.001
524.00	0.001
523.50	0.002
523.00	0.002
522.50	0.001
522.00	0.001
521.50	0.002
521.00	0.003
520.50	0.000
520.00	0.000
519.50	0.001
519.00	0.001
518.50	0.001
518.00	0.002
517.50	0.001
517.00	0.002
516.50	0.002
516.00	0.003
515.50	0.001
515.00	0.003
514.50	0.001
514.00	0.004
513.50	0.001
513.00	-0.001
512.50	0.001
512.00	0.000
511.50	-0.002
511.00	0.003
510.50	0.001
510.00	0.001
509.50	0.000
509.00	0.000
508.50	0.004
508.00	0.001
507.50	0.002
507.00	0.004
506.50	0.002
506.00	0.002
505.50	0.003
505.00	0.001
504.50	-0.001
504.00	0.002
503.50	0.003
503.00	0.003
502.50	0.004
502.00	0.001
501.50	0.003
501.00	0.003
500.50	0.003
500.00	0.002
499.50	0.001
499.00	0.003
498.50	0.000
498.00	0.003
497.50	0.001
497.00	0.001
496.50	0.001
496.00	0.000
495.50	0.001
495.00	0.001
494.50	0.000
494.00	0.004
493.50	0.001
493.00	0.001
492.50	-0.001
492.00	0.002
491.50	0.003
491.00	0.003
490.50	0.002
490.00	0.000
489.50	0.000
489.00	0.003
488.50	0.003
488.00	0.002
487.50	0.002
487.00	0.003
486.50	0.001
486.00	0.000
485.50	0.000
485.00	0.001
484.50	0.001
484.00	0.002
483.50	0.002
483.00	0.000
482.50	-0.001
482.00	0.002
481.50	0.000
481.00	-0.002
480.50	-0.001
480.00	0.003
479.50	0.002
479.00	0.001
478.50	0.000
478.00	0.001
477.50	0.001
477.00	0.000
476.50	0.003
476.00	0.002
475.50	0.001
475.00	0.000
474.50	0.001
474.00	0.002
473.50	0.000
473.00	0.001
472.50	0.002
472.00	0.002
471.50	0.003
471.00	0.002
470.50	-0.001
470.00	0.000
469.50	0.002
469.00	0.004
468.50	0.002
468.00	0.002
467.50	0.000
467.00	0.004
466.50	0.001
466.00	0.001
465.50	0.004
465.00	0.003
464.50	0.002
464.00	0.003
463.50	0.002
463.00	0.001
462.50	-0.001
462.00	0.001
461.50	0.000
461.00	0.003
460.50	0.003
460.00	0.004
459.50	0.002
459.00	0.001
458.50	0.002
458.00	0.004
457.50	0.000
457.00	0.002
456.50	0.000
456.00	0.000
455.50	0.000
455.00	-0.001
454.50	0.000
454.00	0.001
453.50	0.003
453.00	0.002
452.50	0.002
452.00	0.005
451.50	0.004
451.00	0.002
450.50	0.002
450.00	0.001
449.50	0.001
449.00	0.003
448.50	0.003
448.00	0.002
447.50	0.001
447.00	0.002
446.50	0.003
446.00	0.002
445.50	0.000
445.00	-0.001
444.50	0.003
444.00	0.002
443.50	0.000
443.00	0.002
442.50	-0.001
442.00	0.001
441.50	0.002
441.00	0.005
440.50	-0.001
440.00	0.004
439.50	0.001
439.00	0.003
438.50	0.002
438.00	0.004
437.50	0.001
437.00	0.006
436.50	0.002
436.00	0.002
435.50	0.003
435.00	0.000
434.50	0.004
434.00	0.001
433.50	0.001
433.00	0.003
432.50	0.001
432.00	0.003
431.50	0.001
431.00	0.002
430.50	-0.003
430.00	0.000
429.50	0.004
429.00	0.003
428.50	0.001
428.00	0.005
427.50	0.000
427.00	-0.001
426.50	0.001
426.00	0.001
425.50	0.002
425.00	0.001
424.50	0.001
424.00	0.005
423.50	0.004
423.00	0.003
422.50	0.001
422.00	0.001
421.50	0.002
421.00	0.003
420.50	0.002
420.00	0.007
419.50	0.004
419.00	0.005
418.50	0.002
418.00	0.003
417.50	0.005
417.00	0.007
416.50	0.002
416.00	0.001
415.50	0.005
415.00	0.006
414.50	0.002
414.00	-0.001
413.50	0.004
413.00	0.007
412.50	0.005
412.00	0.003
411.50	0.006
411.00	0.005
410.50	0.001
410.00	0.002
409.50	0.002
409.00	0.003
408.50	0.004
408.00	0.000
407.50	0.003
407.00	0.004
406.50	0.003
406.00	0.005
405.50	0.003
405.00	0.005
404.50	0.000
404.00	0.004
403.50	0.004
403.00	0.005
402.50	0.001
402.00	0.000
401.50	0.003
401.00	0.003
400.50	0.008
400.00	0.003
399.50	0.001
399.00	0.007
398.50	0.001
398.00	0.005
397.50	0.004
397.00	-0.001
396.50	0.005
396.00	0.005
395.50	0.004
395.00	-0.001
394.50	0.001
394.00	0.006
393.50	0.003
393.00	0.002
392.50	-0.001
392.00	0.003
391.50	0.000
391.00	-0.004
390.50	0.006
390.00	0.001
389.50	0.001
389.00	0.003
388.50	0.004
388.00	0.003
387.50	0.007
387.00	0.004
386.50	0.006
386.00	0.001
385.50	0.001
385.00	-0.001
384.50	0.009
384.00	0.003
383.50	0.006
383.00	0.000
382.50	0.000
382.00	0.003
381.50	-0.002
381.00	0.006
380.50	0.007
380.00	0.003
379.50	0.005
379.00	0.007
378.50	0.003
378.00	0.002
377.50	-0.002
377.00	0.011
376.50	0.005
376.00	0.009
375.50	0.006
375.00	0.005
374.50	0.004
374.00	0.002
373.50	0.003
373.00	0.006
372.50	0.002
372.00	0.004
371.50	0.001
371.00	0.007
370.50	0.001
370.00	0.004
369.50	0.003
369.00	0.000
368.50	0.002
368.00	0.000
367.50	0.006
367.00	0.006
366.50	0.006
366.00	0.006
365.50	0.008
365.00	0.011
364.50	0.004
364.00	0.003
363.50	0.006
363.00	-0.001
362.50	0.003
362.00	0.007
361.50	0.010
361.00	0.007
360.50	0.004
360.00	0.000
359.50	0.004
359.00	0.004
358.50	0.006
358.00	0.001
357.50	0.004
357.00	0.006
356.50	0.005
356.00	0.007
355.50	0.003
355.00	0.004
354.50	-0.001
354.00	0.004
353.50	0.006
353.00	0.001
352.50	0.000
352.00	0.002
351.50	0.009
351.00	0.010
350.50	0.010
350.00	0.004
349.50	0.006
349.00	-0.002
348.50	0.004
348.00	0.005
347.50	0.004
347.00	0.001
346.50	0.007
346.00	0.006
345.50	0.010
345.00	-0.001
344.50	0.002
344.00	0.005
343.50	0.008
343.00	0.002
342.50	0.010
342.00	0.008
341.50	0.007
341.00	0.008
340.50	0.011
340.00	0.005
339.50	0.007
339.00	0.003
338.50	0.009
338.00	0.008
337.50	0.011
337.00	0.008
336.50	0.009
336.00	0.007
335.50	0.004
335.00	0.003
334.50	0.012
334.00	0.008
333.50	0.005
333.00	0.002
332.50	-0.004
332.00	0.005
331.50	0.009
331.00	0.008
330.50	0.007
330.00	0.011
329.50	0.006
329.00	0.003
328.50	0.008
328.00	0.005
327.50	0.001
327.00	0.007
326.50	0.007
326.00	0.011
325.50	0.000
325.00	0.010
324.50	0.006
324.00	0.003
323.50	0.003
323.00	0.005
322.50	0.005
322.00	0.005
321.50	0.007
321.00	0.009
320.50	0.005
320.00	0.004
319.50	0.007
319.00	0.009
318.50	0.005
318.00	0.003
317.50	0.002
317.00	0.006
316.50	0.007
316.00	0.009
315.50	0.007
315.00	0.006
314.50	0.008
314.00	0.007
313.50	0.010
313.00	0.010
312.50	0.010
312.00	0.007
311.50	0.007
311.00	0.010
310.50	0.007
310.00	0.008
309.50	0.001
309.00	0.009
308.50	0.002
308.00	0.007
307.50	0.001
307.00	0.005
306.50	0.007
306.00	0.008
305.50	0.009
305.00	0.010
304.50	0.009
304.00	0.008
303.50	0.010
303.00	0.005
302.50	0.011
302.00	0.008
301.50	0.012
301.00	0.010
300.50	0.007
300.00	0.008
299.50	0.011
299.00	0.014
298.50	0.007
298.00	0.006
297.50	0.009
297.00	0.005
296.50	0.010
296.00	0.010
295.50	0.007
295.00	0.008
294.50	0.010
294.00	0.012
293.50	0.009
293.00	0.011
292.50	0.010
292.00	0.009
291.50	0.011
291.00	0.006
290.50	0.007
290.00	0.012
289.50	0.011
289.00	0.009
288.50	0.013
288.00	0.012
287.50	0.009
287.00	0.010
286.50	0.015
286.00	0.016
285.50	0.014
285.00	0.012
284.50	0.015
284.00	0.010
283.50	0.012
283.00	0.014
282.50	0.013
282.00	0.013
281.50	0.017
281.00	0.012
280.50	0.014
280.00	0.016
279.50	0.013
279.00	0.013
278.50	0.013
278.00	0.017
277.50	0.016
277.00	0.016
276.50	0.018
276.00	0.016
275.50	0.015
275.00	0.016
274.50	0.014
274.00	0.015
273.50	0.014
273.00	0.016
272.50	0.020
272.00	0.014
271.50	0.017
271.00	0.018
270.50	0.019
270.00	0.020
269.50	0.022
269.00	0.018
268.50	0.019
268.00	0.021
267.50	0.020
267.00	0.018
266.50	0.018
266.00	0.016
265.50	0.018
265.00	0.016
264.50	0.021
264.00	0.016
263.50	0.017
263.00	0.017
262.50	0.020
262.00	0.019
261.50	0.019
261.00	0.018
260.50	0.019
260.00	0.018
259.50	0.018
259.00	0.018
258.50	0.017
258.00	0.019
257.50	0.021
257.00	0.015
256.50	0.019
256.00	0.017
255.50	0.016
255.00	0.014
254.50	0.019
254.00	0.020
253.50	0.021
253.00	0.019
252.50	0.022
252.00	0.019
251.50	0.023
251.00	0.020
250.50	0.021
250.00	0.020
249.50	0.017
249.00	0.022
248.50	0.019
248.00	0.022
247.50	0.022
247.00	0.022
246.50	0.024
246.00	0.022
245.50	0.020
245.00	0.024
244.50	0.022
244.00	0.024
243.50	0.026
243.00	0.025
242.50	0.027
242.00	0.030
241.50	0.030
241.00	0.030
240.50	0.032
240.00	0.033
239.50	0.035
239.00	0.035
238.50	0.039
238.00	0.042
237.50	0.040
237.00	0.041
236.50	0.050
236.00	0.050
235.50	0.052
235.00	0.057
234.50	0.062
234.00	0.068
233.50	0.073
233.00	0.076
232.50	0.080
232.00	0.090
231.50	0.098
231.00	0.103
230.50	0.111
230.00	0.126
229.50	0.128
229.00	0.140
228.50	0.149
228.00	0.165
227.50	0.175
227.00	0.192
226.50	0.199
226.00	0.226
225.50	0.238
225.00	0.257
224.50	0.270
224.00	0.293
223.50	0.308
223.00	0.326
222.50	0.335
222.00	0.362
221.50	0.380
221.00	0.388
220.50	0.403
220.00	0.425
219.50	0.435
219.00	0.446
218.50	0.469
218.00	0.481
217.50	0.490
217.00	0.499
216.50	0.504
216.00	0.518
215.50	0.528
215.00	0.535
214.50	0.542
214.00	0.547
213.50	0.554
213.00	0.562
212.50	0.575
212.00	0.577
211.50	0.579
211.00	0.604
210.50	0.615
210.00	0.628
209.50	0.645
209.00	0.667
208.50	0.693
208.00	0.716
207.50	0.750
207.00	0.777
206.50	0.833
206.00	0.889
205.50	0.916
205.00	0.981
204.50	1.043
204.00	1.110
203.50	1.157
203.00	1.190
202.50	1.249
202.00	1.311
201.50	1.365
201.00	1.418
200.50	1.449
200.00	1.503

