Sample:	'UV-20260820-1-DBP_0.00001875(MeCN)
File name:	UV-20260820-1-DPB_0.00001875(MeCN).UDS
Run Date:	'15:41:23, 08/13/2026
Operator:	DELL
Comment:	'

Instrument
Model:	U-3900H Spectrophotometer
Serial Number:	'2192-001
ROM Version:	2J25300 07

Instrument Parameters
Measurement Type:	Wavelength Scan
Data Mode:	Abs
Start Wavelength:	800.00 nm
End Wavelength:	200.00 nm
Scan Speed:	300 nm/min
Sampling Interval:	0.50 nm
Delay:	0 s
Cycle Time:	0.1 min
Replicates:	1
Auto Zero before each run:	Off
Slit Width:	0.5 nm
PMT Voltage:	Auto
Lamp Change Mode:	Auto
Lamp Change Wavelength:	325.00 nm
Baseline Correction:	User 1(test_1)
High Resolution:	On
D2 Lamp:	On
WI Lamp:	On
R/S Reverse:	Off
Path Correct:	On
Path Length:	10.0 mm

Data Points
nm	Abs
800.00	0.002
799.50	0.003
799.00	0.001
798.50	0.001
798.00	-0.004
797.50	0.006
797.00	0.008
796.50	0.002
796.00	-0.001
795.50	0.002
795.00	0.003
794.50	0.001
794.00	0.000
793.50	-0.002
793.00	-0.003
792.50	0.001
792.00	0.000
791.50	-0.005
791.00	-0.005
790.50	0.005
790.00	0.006
789.50	-0.003
789.00	0.004
788.50	-0.004
788.00	0.004
787.50	-0.001
787.00	-0.001
786.50	0.001
786.00	-0.005
785.50	-0.002
785.00	0.004
784.50	-0.004
784.00	0.002
783.50	0.001
783.00	0.001
782.50	0.001
782.00	-0.003
781.50	0.003
781.00	0.001
780.50	0.000
780.00	-0.001
779.50	0.001
779.00	-0.001
778.50	-0.002
778.00	-0.002
777.50	-0.003
777.00	-0.002
776.50	0.003
776.00	-0.003
775.50	0.002
775.00	0.003
774.50	-0.002
774.00	-0.003
773.50	-0.005
773.00	-0.006
772.50	0.001
772.00	0.001
771.50	-0.003
771.00	-0.001
770.50	-0.003
770.00	-0.001
769.50	-0.001
769.00	-0.002
768.50	0.000
768.00	-0.003
767.50	0.001
767.00	-0.005
766.50	0.000
766.00	-0.003
765.50	-0.003
765.00	0.000
764.50	-0.002
764.00	0.000
763.50	-0.001
763.00	-0.002
762.50	-0.001
762.00	-0.003
761.50	0.002
761.00	0.000
760.50	-0.001
760.00	0.000
759.50	-0.004
759.00	0.005
758.50	0.001
758.00	0.001
757.50	0.001
757.00	0.000
756.50	-0.003
756.00	-0.001
755.50	-0.001
755.00	-0.005
754.50	-0.001
754.00	0.003
753.50	-0.001
753.00	0.000
752.50	0.002
752.00	-0.003
751.50	0.001
751.00	0.003
750.50	-0.004
750.00	0.000
749.50	0.002
749.00	-0.004
748.50	-0.001
748.00	-0.002
747.50	0.002
747.00	-0.003
746.50	0.001
746.00	-0.003
745.50	-0.001
745.00	-0.003
744.50	0.003
744.00	0.000
743.50	0.001
743.00	-0.003
742.50	-0.005
742.00	-0.001
741.50	0.002
741.00	-0.002
740.50	-0.004
740.00	-0.002
739.50	-0.001
739.00	0.000
738.50	-0.004
738.00	0.000
737.50	-0.001
737.00	0.001
736.50	0.003
736.00	-0.007
735.50	-0.001
735.00	0.000
734.50	-0.002
734.00	-0.002
733.50	-0.004
733.00	-0.003
732.50	0.003
732.00	-0.001
731.50	-0.002
731.00	0.004
730.50	-0.001
730.00	0.001
729.50	0.001
729.00	-0.003
728.50	0.000
728.00	0.003
727.50	0.000
727.00	0.003
726.50	-0.001
726.00	0.000
725.50	-0.002
725.00	-0.001
724.50	-0.003
724.00	-0.001
723.50	0.004
723.00	-0.001
722.50	-0.002
722.00	0.001
721.50	-0.002
721.00	-0.001
720.50	0.002
720.00	-0.001
719.50	-0.002
719.00	-0.001
718.50	-0.002
718.00	-0.003
717.50	-0.002
717.00	-0.002
716.50	0.002
716.00	0.002
715.50	0.000
715.00	-0.003
714.50	0.000
714.00	-0.003
713.50	0.001
713.00	-0.001
712.50	-0.003
712.00	-0.002
711.50	-0.004
711.00	0.001
710.50	0.001
710.00	0.001
709.50	0.000
709.00	0.002
708.50	-0.002
708.00	-0.001
707.50	-0.004
707.00	-0.001
706.50	0.001
706.00	-0.002
705.50	0.000
705.00	-0.004
704.50	0.000
704.00	-0.001
703.50	0.002
703.00	0.001
702.50	-0.002
702.00	-0.001
701.50	0.000
701.00	-0.001
700.50	0.001
700.00	-0.005
699.50	0.000
699.00	-0.003
698.50	0.001
698.00	0.000
697.50	-0.001
697.00	0.000
696.50	-0.002
696.00	-0.004
695.50	0.000
695.00	-0.003
694.50	0.001
694.00	0.000
693.50	0.000
693.00	-0.002
692.50	0.001
692.00	-0.003
691.50	0.002
691.00	0.002
690.50	0.000
690.00	-0.002
689.50	0.000
689.00	0.001
688.50	0.001
688.00	0.000
687.50	0.000
687.00	-0.004
686.50	0.001
686.00	0.001
685.50	-0.001
685.00	-0.004
684.50	-0.001
684.00	0.001
683.50	0.000
683.00	-0.005
682.50	-0.001
682.00	-0.003
681.50	0.000
681.00	0.001
680.50	0.000
680.00	0.002
679.50	-0.002
679.00	-0.001
678.50	0.000
678.00	0.000
677.50	-0.001
677.00	0.001
676.50	-0.003
676.00	-0.001
675.50	0.000
675.00	0.001
674.50	-0.002
674.00	0.000
673.50	-0.002
673.00	0.000
672.50	0.000
672.00	0.000
671.50	0.000
671.00	0.002
670.50	0.000
670.00	-0.001
669.50	0.001
669.00	0.000
668.50	0.000
668.00	0.001
667.50	0.001
667.00	-0.001
666.50	-0.001
666.00	0.000
665.50	-0.003
665.00	-0.001
664.50	0.001
664.00	0.001
663.50	-0.001
663.00	-0.001
662.50	0.002
662.00	0.000
661.50	-0.002
661.00	0.002
660.50	0.000
660.00	0.000
659.50	-0.002
659.00	0.002
658.50	-0.001
658.00	0.000
657.50	-0.001
657.00	0.002
656.50	0.000
656.00	0.000
655.50	-0.003
655.00	0.001
654.50	0.001
654.00	0.000
653.50	-0.002
653.00	-0.001
652.50	0.001
652.00	-0.001
651.50	-0.003
651.00	-0.003
650.50	-0.003
650.00	-0.002
649.50	0.000
649.00	0.001
648.50	0.002
648.00	0.000
647.50	-0.001
647.00	-0.001
646.50	0.000
646.00	-0.001
645.50	-0.003
645.00	-0.001
644.50	-0.003
644.00	-0.001
643.50	-0.001
643.00	-0.003
642.50	-0.002
642.00	0.001
641.50	-0.001
641.00	-0.002
640.50	0.003
640.00	-0.002
639.50	0.001
639.00	-0.001
638.50	0.000
638.00	0.001
637.50	0.002
637.00	0.000
636.50	0.000
636.00	-0.003
635.50	-0.001
635.00	0.000
634.50	-0.001
634.00	-0.001
633.50	0.003
633.00	-0.003
632.50	-0.001
632.00	-0.001
631.50	0.000
631.00	0.000
630.50	0.000
630.00	-0.001
629.50	0.000
629.00	-0.001
628.50	0.000
628.00	-0.001
627.50	-0.001
627.00	-0.001
626.50	0.001
626.00	0.001
625.50	-0.003
625.00	0.000
624.50	-0.001
624.00	0.000
623.50	0.000
623.00	0.000
622.50	-0.003
622.00	0.000
621.50	-0.002
621.00	0.002
620.50	-0.001
620.00	0.000
619.50	0.000
619.00	-0.001
618.50	-0.001
618.00	-0.001
617.50	0.001
617.00	-0.002
616.50	0.000
616.00	-0.001
615.50	0.002
615.00	-0.001
614.50	-0.002
614.00	0.003
613.50	-0.001
613.00	-0.001
612.50	-0.001
612.00	-0.001
611.50	-0.003
611.00	0.002
610.50	0.001
610.00	0.000
609.50	0.002
609.00	-0.001
608.50	0.001
608.00	-0.005
607.50	-0.002
607.00	-0.001
606.50	-0.001
606.00	0.001
605.50	-0.001
605.00	-0.001
604.50	-0.002
604.00	0.000
603.50	-0.002
603.00	-0.003
602.50	0.001
602.00	0.000
601.50	-0.001
601.00	0.000
600.50	-0.007
600.00	0.001
599.50	0.000
599.00	0.002
598.50	0.006
598.00	0.001
597.50	-0.001
597.00	0.000
596.50	-0.001
596.00	-0.002
595.50	0.000
595.00	-0.002
594.50	-0.001
594.00	-0.005
593.50	-0.002
593.00	-0.001
592.50	-0.002
592.00	0.003
591.50	-0.001
591.00	-0.002
590.50	0.003
590.00	0.001
589.50	-0.001
589.00	0.000
588.50	0.003
588.00	-0.004
587.50	-0.001
587.00	-0.003
586.50	-0.001
586.00	-0.003
585.50	0.001
585.00	0.000
584.50	-0.001
584.00	-0.001
583.50	0.000
583.00	-0.001
582.50	-0.004
582.00	-0.002
581.50	-0.001
581.00	0.000
580.50	-0.002
580.00	-0.002
579.50	0.002
579.00	0.001
578.50	0.003
578.00	0.001
577.50	0.000
577.00	-0.002
576.50	-0.001
576.00	0.000
575.50	-0.001
575.00	-0.003
574.50	-0.001
574.00	0.000
573.50	-0.001
573.00	0.000
572.50	0.000
572.00	0.000
571.50	0.000
571.00	-0.002
570.50	0.000
570.00	-0.004
569.50	-0.002
569.00	0.000
568.50	-0.002
568.00	0.000
567.50	-0.001
567.00	0.002
566.50	-0.001
566.00	-0.002
565.50	-0.001
565.00	-0.002
564.50	-0.001
564.00	0.001
563.50	-0.001
563.00	0.001
562.50	0.000
562.00	0.001
561.50	0.001
561.00	0.001
560.50	0.000
560.00	-0.001
559.50	0.000
559.00	0.000
558.50	0.001
558.00	0.000
557.50	0.001
557.00	-0.001
556.50	-0.001
556.00	0.001
555.50	-0.002
555.00	0.001
554.50	-0.003
554.00	-0.002
553.50	0.001
553.00	-0.001
552.50	0.001
552.00	-0.002
551.50	0.000
551.00	-0.002
550.50	-0.001
550.00	0.001
549.50	-0.002
549.00	0.000
548.50	0.000
548.00	0.000
547.50	-0.001
547.00	0.000
546.50	-0.003
546.00	-0.003
545.50	-0.001
545.00	0.000
544.50	-0.002
544.00	-0.002
543.50	-0.003
543.00	-0.001
542.50	0.000
542.00	0.001
541.50	-0.002
541.00	-0.001
540.50	0.001
540.00	-0.001
539.50	-0.001
539.00	-0.001
538.50	-0.001
538.00	0.001
537.50	0.001
537.00	-0.002
536.50	0.001
536.00	0.000
535.50	-0.001
535.00	0.000
534.50	0.000
534.00	-0.001
533.50	-0.001
533.00	-0.001
532.50	-0.001
532.00	0.000
531.50	-0.001
531.00	-0.001
530.50	0.001
530.00	-0.002
529.50	0.000
529.00	-0.003
528.50	0.001
528.00	-0.001
527.50	0.001
527.00	-0.001
526.50	-0.002
526.00	0.001
525.50	-0.001
525.00	-0.002
524.50	-0.001
524.00	-0.001
523.50	-0.002
523.00	-0.001
522.50	0.001
522.00	0.001
521.50	0.000
521.00	0.001
520.50	0.000
520.00	-0.002
519.50	0.000
519.00	-0.001
518.50	-0.001
518.00	0.000
517.50	-0.001
517.00	0.001
516.50	0.000
516.00	0.000
515.50	0.000
515.00	0.000
514.50	-0.002
514.00	0.000
513.50	0.000
513.00	-0.002
512.50	0.000
512.00	-0.003
511.50	-0.003
511.00	0.001
510.50	0.000
510.00	-0.001
509.50	-0.002
509.00	0.001
508.50	-0.001
508.00	-0.001
507.50	0.000
507.00	-0.001
506.50	0.000
506.00	-0.002
505.50	0.002
505.00	0.002
504.50	0.001
504.00	-0.002
503.50	-0.002
503.00	0.000
502.50	0.000
502.00	-0.001
501.50	0.000
501.00	0.002
500.50	0.000
500.00	0.003
499.50	0.000
499.00	0.000
498.50	0.000
498.00	-0.001
497.50	-0.001
497.00	-0.002
496.50	0.000
496.00	-0.003
495.50	-0.002
495.00	0.001
494.50	-0.001
494.00	0.002
493.50	0.000
493.00	-0.001
492.50	-0.004
492.00	0.000
491.50	-0.001
491.00	0.000
490.50	0.000
490.00	0.000
489.50	-0.003
489.00	0.001
488.50	0.001
488.00	-0.002
487.50	-0.002
487.00	-0.001
486.50	0.001
486.00	-0.001
485.50	-0.002
485.00	-0.002
484.50	-0.001
484.00	-0.002
483.50	0.000
483.00	-0.002
482.50	-0.003
482.00	0.000
481.50	-0.002
481.00	-0.003
480.50	-0.002
480.00	-0.001
479.50	-0.001
479.00	-0.002
478.50	-0.001
478.00	0.000
477.50	-0.002
477.00	-0.004
476.50	0.002
476.00	0.000
475.50	-0.001
475.00	-0.002
474.50	-0.002
474.00	-0.001
473.50	0.000
473.00	-0.003
472.50	-0.001
472.00	-0.001
471.50	0.000
471.00	0.001
470.50	-0.002
470.00	-0.002
469.50	-0.001
469.00	0.003
468.50	0.000
468.00	0.000
467.50	0.000
467.00	0.000
466.50	-0.001
466.00	-0.003
465.50	0.002
465.00	-0.002
464.50	-0.001
464.00	0.000
463.50	0.000
463.00	-0.001
462.50	-0.001
462.00	-0.001
461.50	-0.002
461.00	0.000
460.50	0.000
460.00	0.002
459.50	0.001
459.00	-0.001
458.50	0.000
458.00	0.000
457.50	-0.001
457.00	0.001
456.50	0.001
456.00	0.000
455.50	-0.001
455.00	-0.001
454.50	-0.002
454.00	-0.003
453.50	0.000
453.00	-0.001
452.50	-0.002
452.00	0.000
451.50	0.003
451.00	-0.001
450.50	0.000
450.00	-0.001
449.50	0.001
449.00	0.002
448.50	-0.002
448.00	-0.001
447.50	-0.001
447.00	0.000
446.50	-0.001
446.00	0.001
445.50	0.000
445.00	-0.003
444.50	0.000
444.00	-0.001
443.50	0.000
443.00	-0.001
442.50	-0.002
442.00	-0.001
441.50	0.000
441.00	0.000
440.50	-0.003
440.00	0.000
439.50	-0.002
439.00	0.003
438.50	-0.002
438.00	-0.001
437.50	-0.003
437.00	0.002
436.50	-0.002
436.00	0.000
435.50	0.003
435.00	0.001
434.50	0.000
434.00	-0.002
433.50	-0.002
433.00	0.000
432.50	-0.001
432.00	0.000
431.50	-0.001
431.00	-0.001
430.50	-0.002
430.00	-0.001
429.50	0.000
429.00	0.001
428.50	-0.003
428.00	0.001
427.50	-0.002
427.00	-0.002
426.50	-0.002
426.00	-0.002
425.50	-0.001
425.00	-0.001
424.50	-0.002
424.00	0.002
423.50	0.001
423.00	0.002
422.50	-0.006
422.00	-0.002
421.50	0.001
421.00	0.000
420.50	-0.005
420.00	0.002
419.50	-0.003
419.00	0.004
418.50	0.000
418.00	0.002
417.50	0.001
417.00	0.002
416.50	-0.001
416.00	-0.002
415.50	0.000
415.00	0.000
414.50	-0.003
414.00	-0.001
413.50	-0.001
413.00	-0.002
412.50	0.003
412.00	0.000
411.50	0.001
411.00	0.001
410.50	-0.002
410.00	-0.001
409.50	0.000
409.00	0.001
408.50	0.001
408.00	-0.003
407.50	-0.003
407.00	0.000
406.50	-0.001
406.00	0.002
405.50	0.002
405.00	-0.003
404.50	-0.002
404.00	0.002
403.50	0.001
403.00	0.002
402.50	-0.003
402.00	-0.004
401.50	-0.001
401.00	-0.001
400.50	0.002
400.00	0.001
399.50	0.000
399.00	0.001
398.50	-0.003
398.00	0.000
397.50	0.002
397.00	-0.002
396.50	0.003
396.00	-0.001
395.50	0.000
395.00	-0.001
394.50	-0.001
394.00	0.000
393.50	0.002
393.00	-0.002
392.50	0.000
392.00	0.000
391.50	-0.001
391.00	-0.005
390.50	0.005
390.00	0.000
389.50	0.000
389.00	-0.003
388.50	0.000
388.00	0.000
387.50	0.002
387.00	0.000
386.50	0.003
386.00	0.000
385.50	0.001
385.00	-0.002
384.50	0.002
384.00	-0.003
383.50	-0.001
383.00	0.001
382.50	-0.002
382.00	-0.002
381.50	-0.004
381.00	0.003
380.50	0.003
380.00	0.001
379.50	0.004
379.00	0.004
378.50	-0.001
378.00	-0.003
377.50	-0.007
377.00	0.007
376.50	-0.001
376.00	0.002
375.50	0.002
375.00	0.001
374.50	0.001
374.00	-0.002
373.50	0.001
373.00	0.001
372.50	0.000
372.00	-0.001
371.50	0.001
371.00	0.001
370.50	0.002
370.00	0.006
369.50	-0.002
369.00	0.001
368.50	0.002
368.00	-0.002
367.50	0.001
367.00	0.001
366.50	0.000
366.00	0.000
365.50	0.002
365.00	0.002
364.50	0.005
364.00	-0.002
363.50	0.000
363.00	-0.006
362.50	-0.002
362.00	0.000
361.50	0.002
361.00	0.003
360.50	0.000
360.00	-0.004
359.50	0.000
359.00	0.001
358.50	0.000
358.00	0.001
357.50	0.002
357.00	0.004
356.50	0.003
356.00	0.000
355.50	0.001
355.00	0.002
354.50	0.001
354.00	0.001
353.50	0.007
353.00	0.004
352.50	-0.001
352.00	0.002
351.50	0.007
351.00	0.009
350.50	0.006
350.00	0.006
349.50	0.004
349.00	-0.002
348.50	-0.001
348.00	-0.002
347.50	0.002
347.00	-0.002
346.50	-0.001
346.00	0.003
345.50	0.007
345.00	-0.003
344.50	0.001
344.00	0.006
343.50	-0.001
343.00	0.001
342.50	0.000
342.00	0.004
341.50	0.001
341.00	0.008
340.50	0.006
340.00	0.000
339.50	0.001
339.00	0.002
338.50	0.005
338.00	0.004
337.50	0.003
337.00	0.003
336.50	-0.001
336.00	-0.003
335.50	-0.001
335.00	0.000
334.50	0.002
334.00	0.003
333.50	0.005
333.00	-0.003
332.50	-0.009
332.00	0.002
331.50	0.003
331.00	0.000
330.50	0.005
330.00	0.009
329.50	0.004
329.00	0.002
328.50	0.001
328.00	-0.001
327.50	-0.004
327.00	-0.003
326.50	0.011
326.00	-0.001
325.50	0.009
325.00	0.003
324.50	0.001
324.00	0.000
323.50	0.002
323.00	0.001
322.50	0.004
322.00	0.000
321.50	0.004
321.00	0.003
320.50	-0.003
320.00	-0.002
319.50	0.005
319.00	0.005
318.50	0.003
318.00	0.001
317.50	0.002
317.00	0.000
316.50	0.003
316.00	0.006
315.50	0.000
315.00	0.003
314.50	0.000
314.00	0.003
313.50	0.002
313.00	-0.002
312.50	0.000
312.00	0.002
311.50	0.004
311.00	0.004
310.50	0.000
310.00	0.002
309.50	-0.001
309.00	0.001
308.50	-0.004
308.00	0.003
307.50	-0.001
307.00	0.003
306.50	0.003
306.00	0.003
305.50	0.005
305.00	0.002
304.50	0.002
304.00	0.003
303.50	0.003
303.00	0.000
302.50	0.006
302.00	0.002
301.50	0.003
301.00	0.000
300.50	0.001
300.00	0.001
299.50	0.003
299.00	0.004
298.50	0.000
298.00	0.003
297.50	0.005
297.00	0.001
296.50	0.001
296.00	0.005
295.50	0.004
295.00	0.001
294.50	0.003
294.00	0.005
293.50	0.003
293.00	0.007
292.50	0.005
292.00	0.004
291.50	0.006
291.00	0.001
290.50	0.004
290.00	0.005
289.50	0.008
289.00	0.007
288.50	0.009
288.00	0.008
287.50	0.008
287.00	0.014
286.50	0.015
286.00	0.013
285.50	0.021
285.00	0.017
284.50	0.025
284.00	0.022
283.50	0.025
283.00	0.028
282.50	0.028
282.00	0.029
281.50	0.031
281.00	0.027
280.50	0.029
280.00	0.030
279.50	0.029
279.00	0.030
278.50	0.033
278.00	0.029
277.50	0.032
277.00	0.033
276.50	0.030
276.00	0.031
275.50	0.034
275.00	0.033
274.50	0.032
274.00	0.035
273.50	0.032
273.00	0.034
272.50	0.036
272.00	0.033
271.50	0.030
271.00	0.032
270.50	0.031
270.00	0.035
269.50	0.033
269.00	0.035
268.50	0.031
268.00	0.031
267.50	0.031
267.00	0.030
266.50	0.028
266.00	0.028
265.50	0.026
265.00	0.030
264.50	0.030
264.00	0.027
263.50	0.029
263.00	0.025
262.50	0.027
262.00	0.028
261.50	0.030
261.00	0.029
260.50	0.027
260.00	0.027
259.50	0.029
259.00	0.026
258.50	0.026
258.00	0.029
257.50	0.030
257.00	0.029
256.50	0.030
256.00	0.026
255.50	0.031
255.00	0.029
254.50	0.029
254.00	0.032
253.50	0.033
253.00	0.035
252.50	0.039
252.00	0.036
251.50	0.037
251.00	0.040
250.50	0.039
250.00	0.042
249.50	0.043
249.00	0.047
248.50	0.047
248.00	0.051
247.50	0.051
247.00	0.053
246.50	0.055
246.00	0.059
245.50	0.058
245.00	0.064
244.50	0.063
244.00	0.071
243.50	0.074
243.00	0.080
242.50	0.085
242.00	0.089
241.50	0.092
241.00	0.098
240.50	0.103
240.00	0.105
239.50	0.114
239.00	0.119
238.50	0.127
238.00	0.129
237.50	0.135
237.00	0.137
236.50	0.143
236.00	0.147
235.50	0.151
235.00	0.159
234.50	0.162
234.00	0.166
233.50	0.172
233.00	0.171
232.50	0.178
232.00	0.180
231.50	0.185
231.00	0.191
230.50	0.193
230.00	0.198
229.50	0.197
229.00	0.203
228.50	0.206
228.00	0.211
227.50	0.213
227.00	0.215
226.50	0.212
226.00	0.218
225.50	0.220
225.00	0.227
224.50	0.228
224.00	0.228
223.50	0.229
223.00	0.230
222.50	0.228
222.00	0.229
221.50	0.231
221.00	0.227
220.50	0.226
220.00	0.224
219.50	0.222
219.00	0.221
218.50	0.223
218.00	0.218
217.50	0.216
217.00	0.216
216.50	0.214
216.00	0.211
215.50	0.213
215.00	0.211
214.50	0.213
214.00	0.213
213.50	0.222
213.00	0.219
212.50	0.224
212.00	0.232
211.50	0.230
211.00	0.237
210.50	0.252
210.00	0.259
209.50	0.268
209.00	0.293
208.50	0.319
208.00	0.339
207.50	0.364
207.00	0.385
206.50	0.430
206.00	0.473
205.50	0.503
205.00	0.539
204.50	0.608
204.00	0.646
203.50	0.681
203.00	0.729
202.50	0.785
202.00	0.827
201.50	0.866
201.00	0.895
200.50	0.956
200.00	0.982

