Sample:	'UV-10-MeCN(pure)
File name:	UV-10-MeCN(pure).UDS
Run Date:	'12:48:21, 08/16/2026
Operator:	DELL
Comment:	'

Instrument
Model:	U-3900H Spectrophotometer
Serial Number:	'2192-001
ROM Version:	2J25300 07

Instrument Parameters
Measurement Type:	Wavelength Scan
Data Mode:	Abs
Start Wavelength:	800.00 nm
End Wavelength:	200.00 nm
Scan Speed:	300 nm/min
Sampling Interval:	0.50 nm
Delay:	0 s
Cycle Time:	0.1 min
Replicates:	1
Auto Zero before each run:	Off
Slit Width:	0.5 nm
PMT Voltage:	Auto
Lamp Change Mode:	Auto
Lamp Change Wavelength:	325.00 nm
Baseline Correction:	User 1(test_1)
High Resolution:	On
D2 Lamp:	On
WI Lamp:	On
R/S Reverse:	Off
Path Correct:	On
Path Length:	50.0 mm

Data Points
nm	Abs
800.00	-0.001
799.50	0.000
799.00	0.000
798.50	0.000
798.00	0.000
797.50	0.001
797.00	0.000
796.50	0.000
796.00	-0.001
795.50	0.001
795.00	0.001
794.50	-0.001
794.00	0.000
793.50	0.000
793.00	-0.001
792.50	0.001
792.00	0.001
791.50	0.000
791.00	-0.001
790.50	0.000
790.00	0.000
789.50	0.000
789.00	-0.001
788.50	0.000
788.00	-0.001
787.50	0.000
787.00	-0.001
786.50	0.000
786.00	0.000
785.50	0.001
785.00	-0.001
784.50	0.001
784.00	-0.001
783.50	0.000
783.00	-0.001
782.50	0.000
782.00	0.001
781.50	-0.001
781.00	0.000
780.50	0.000
780.00	0.000
779.50	0.000
779.00	-0.001
778.50	0.000
778.00	-0.001
777.50	0.000
777.00	-0.001
776.50	-0.001
776.00	0.000
775.50	-0.001
775.00	0.000
774.50	0.000
774.00	0.001
773.50	0.001
773.00	0.000
772.50	0.000
772.00	0.000
771.50	0.000
771.00	0.001
770.50	0.000
770.00	0.000
769.50	-0.001
769.00	-0.001
768.50	0.000
768.00	-0.001
767.50	-0.001
767.00	0.000
766.50	-0.001
766.00	0.000
765.50	0.000
765.00	0.000
764.50	-0.001
764.00	0.000
763.50	-0.001
763.00	0.000
762.50	0.000
762.00	0.000
761.50	0.000
761.00	0.000
760.50	0.001
760.00	0.000
759.50	-0.001
759.00	0.000
758.50	-0.001
758.00	0.000
757.50	0.000
757.00	0.000
756.50	0.000
756.00	0.000
755.50	0.000
755.00	0.000
754.50	0.000
754.00	0.000
753.50	0.000
753.00	0.000
752.50	-0.001
752.00	0.000
751.50	0.000
751.00	0.000
750.50	-0.001
750.00	0.000
749.50	0.000
749.00	0.000
748.50	-0.001
748.00	0.001
747.50	0.000
747.00	0.000
746.50	0.000
746.00	-0.001
745.50	-0.001
745.00	-0.001
744.50	-0.001
744.00	0.000
743.50	0.000
743.00	0.000
742.50	0.000
742.00	0.000
741.50	-0.001
741.00	0.000
740.50	0.000
740.00	0.000
739.50	0.000
739.00	0.000
738.50	0.000
738.00	0.000
737.50	-0.001
737.00	0.000
736.50	0.000
736.00	0.000
735.50	0.000
735.00	-0.001
734.50	0.000
734.00	-0.001
733.50	0.000
733.00	0.000
732.50	0.000
732.00	0.000
731.50	0.000
731.00	0.000
730.50	0.000
730.00	-0.001
729.50	0.000
729.00	-0.001
728.50	0.000
728.00	0.000
727.50	0.000
727.00	-0.001
726.50	0.000
726.00	-0.001
725.50	0.000
725.00	0.000
724.50	0.000
724.00	0.000
723.50	0.000
723.00	0.000
722.50	0.000
722.00	0.000
721.50	0.001
721.00	0.000
720.50	0.000
720.00	-0.001
719.50	-0.001
719.00	-0.001
718.50	0.000
718.00	0.000
717.50	0.000
717.00	0.000
716.50	0.000
716.00	0.000
715.50	-0.001
715.00	0.000
714.50	0.000
714.00	0.000
713.50	0.000
713.00	0.000
712.50	0.000
712.00	0.000
711.50	-0.001
711.00	0.000
710.50	0.000
710.00	0.000
709.50	0.000
709.00	-0.001
708.50	0.000
708.00	0.000
707.50	-0.001
707.00	0.000
706.50	0.000
706.00	0.000
705.50	-0.001
705.00	0.000
704.50	0.000
704.00	0.000
703.50	0.000
703.00	-0.001
702.50	0.000
702.00	0.000
701.50	0.000
701.00	0.000
700.50	0.000
700.00	0.000
699.50	0.000
699.00	0.000
698.50	0.000
698.00	0.000
697.50	0.000
697.00	0.000
696.50	0.000
696.00	0.000
695.50	0.000
695.00	0.000
694.50	0.000
694.00	0.000
693.50	-0.001
693.00	0.000
692.50	0.000
692.00	0.000
691.50	0.000
691.00	-0.001
690.50	0.000
690.00	0.000
689.50	-0.001
689.00	0.000
688.50	-0.001
688.00	0.000
687.50	0.000
687.00	0.000
686.50	0.000
686.00	0.000
685.50	0.000
685.00	0.000
684.50	-0.001
684.00	0.000
683.50	0.000
683.00	0.000
682.50	0.000
682.00	-0.001
681.50	-0.001
681.00	0.000
680.50	0.000
680.00	0.000
679.50	0.000
679.00	0.000
678.50	0.001
678.00	0.000
677.50	-0.001
677.00	-0.001
676.50	0.000
676.00	0.000
675.50	0.000
675.00	0.000
674.50	0.000
674.00	0.000
673.50	0.000
673.00	0.000
672.50	0.000
672.00	0.001
671.50	0.000
671.00	0.000
670.50	0.000
670.00	0.000
669.50	0.000
669.00	0.000
668.50	0.000
668.00	0.000
667.50	0.000
667.00	-0.001
666.50	0.000
666.00	0.000
665.50	0.000
665.00	0.000
664.50	0.000
664.00	0.000
663.50	0.000
663.00	0.000
662.50	0.000
662.00	0.000
661.50	-0.001
661.00	0.000
660.50	0.000
660.00	0.000
659.50	-0.001
659.00	0.000
658.50	0.000
658.00	0.000
657.50	-0.001
657.00	0.000
656.50	0.000
656.00	-0.001
655.50	0.000
655.00	0.000
654.50	0.000
654.00	0.000
653.50	0.000
653.00	0.000
652.50	0.000
652.00	-0.001
651.50	0.000
651.00	0.000
650.50	-0.001
650.00	0.000
649.50	0.000
649.00	0.000
648.50	-0.001
648.00	-0.001
647.50	0.000
647.00	0.000
646.50	0.000
646.00	0.000
645.50	0.000
645.00	0.000
644.50	0.000
644.00	0.000
643.50	0.000
643.00	0.000
642.50	0.000
642.00	0.000
641.50	0.000
641.00	0.000
640.50	0.000
640.00	0.000
639.50	0.000
639.00	-0.001
638.50	0.000
638.00	0.000
637.50	0.000
637.00	0.000
636.50	0.000
636.00	-0.001
635.50	0.000
635.00	0.000
634.50	0.000
634.00	0.000
633.50	-0.001
633.00	-0.001
632.50	0.000
632.00	0.000
631.50	-0.001
631.00	0.000
630.50	0.000
630.00	0.000
629.50	0.000
629.00	0.000
628.50	0.000
628.00	0.000
627.50	0.000
627.00	0.000
626.50	0.000
626.00	0.000
625.50	-0.001
625.00	0.000
624.50	-0.001
624.00	0.000
623.50	0.000
623.00	0.000
622.50	0.000
622.00	0.000
621.50	-0.001
621.00	0.000
620.50	0.000
620.00	0.000
619.50	-0.001
619.00	-0.001
618.50	0.000
618.00	-0.001
617.50	0.000
617.00	0.000
616.50	0.000
616.00	-0.001
615.50	0.000
615.00	0.000
614.50	0.000
614.00	0.000
613.50	0.000
613.00	-0.001
612.50	-0.001
612.00	0.000
611.50	0.000
611.00	0.000
610.50	0.000
610.00	0.000
609.50	0.000
609.00	-0.001
608.50	0.000
608.00	0.000
607.50	0.000
607.00	0.000
606.50	0.000
606.00	0.000
605.50	0.000
605.00	0.000
604.50	-0.001
604.00	0.000
603.50	-0.001
603.00	0.000
602.50	0.000
602.00	-0.001
601.50	0.000
601.00	0.000
600.50	0.000
600.00	0.000
599.50	0.000
599.00	0.001
598.50	-0.001
598.00	-0.001
597.50	-0.001
597.00	0.000
596.50	-0.001
596.00	0.000
595.50	0.000
595.00	-0.001
594.50	-0.001
594.00	0.000
593.50	0.000
593.00	0.000
592.50	0.000
592.00	0.000
591.50	-0.001
591.00	0.000
590.50	0.000
590.00	0.000
589.50	-0.001
589.00	-0.001
588.50	0.001
588.00	-0.001
587.50	0.000
587.00	0.000
586.50	0.000
586.00	0.000
585.50	-0.001
585.00	0.000
584.50	-0.001
584.00	0.000
583.50	0.000
583.00	0.000
582.50	-0.001
582.00	0.000
581.50	0.000
581.00	0.000
580.50	0.000
580.00	0.000
579.50	0.000
579.00	-0.001
578.50	0.000
578.00	0.000
577.50	0.000
577.00	0.000
576.50	0.000
576.00	0.000
575.50	-0.001
575.00	-0.001
574.50	0.000
574.00	0.000
573.50	-0.001
573.00	0.000
572.50	0.000
572.00	0.000
571.50	-0.001
571.00	-0.001
570.50	0.000
570.00	0.000
569.50	-0.001
569.00	-0.001
568.50	0.000
568.00	0.000
567.50	0.000
567.00	0.000
566.50	0.000
566.00	0.000
565.50	0.000
565.00	0.000
564.50	0.000
564.00	0.000
563.50	0.000
563.00	0.000
562.50	0.000
562.00	0.000
561.50	-0.001
561.00	-0.001
560.50	0.000
560.00	0.000
559.50	0.000
559.00	0.000
558.50	-0.001
558.00	-0.001
557.50	0.000
557.00	0.000
556.50	0.000
556.00	0.000
555.50	-0.001
555.00	0.000
554.50	0.000
554.00	0.000
553.50	-0.001
553.00	0.000
552.50	0.000
552.00	0.000
551.50	-0.001
551.00	0.000
550.50	0.000
550.00	0.000
549.50	0.000
549.00	0.000
548.50	0.000
548.00	0.000
547.50	0.000
547.00	0.000
546.50	0.000
546.00	0.000
545.50	0.000
545.00	0.000
544.50	0.000
544.00	-0.001
543.50	0.000
543.00	0.000
542.50	0.000
542.00	0.000
541.50	0.000
541.00	0.000
540.50	0.000
540.00	0.000
539.50	0.000
539.00	0.000
538.50	0.000
538.00	0.000
537.50	0.000
537.00	0.000
536.50	0.000
536.00	-0.001
535.50	-0.001
535.00	0.000
534.50	-0.001
534.00	0.000
533.50	0.000
533.00	0.000
532.50	0.000
532.00	0.000
531.50	0.000
531.00	0.000
530.50	0.000
530.00	0.000
529.50	0.000
529.00	0.000
528.50	0.000
528.00	0.000
527.50	0.000
527.00	0.000
526.50	0.000
526.00	-0.001
525.50	0.000
525.00	0.000
524.50	0.000
524.00	0.000
523.50	0.000
523.00	0.000
522.50	0.000
522.00	0.000
521.50	-0.001
521.00	0.000
520.50	0.000
520.00	0.000
519.50	0.000
519.00	0.000
518.50	-0.001
518.00	0.000
517.50	0.000
517.00	0.000
516.50	-0.001
516.00	0.000
515.50	0.000
515.00	0.000
514.50	0.000
514.00	0.000
513.50	0.000
513.00	0.000
512.50	0.000
512.00	0.000
511.50	0.000
511.00	0.000
510.50	0.000
510.00	0.000
509.50	0.000
509.00	0.000
508.50	0.000
508.00	0.000
507.50	0.000
507.00	0.000
506.50	-0.001
506.00	0.000
505.50	0.000
505.00	0.000
504.50	0.000
504.00	0.000
503.50	0.000
503.00	0.000
502.50	0.000
502.00	0.000
501.50	0.000
501.00	0.000
500.50	0.000
500.00	-0.001
499.50	0.000
499.00	0.000
498.50	0.000
498.00	0.000
497.50	-0.001
497.00	0.000
496.50	0.000
496.00	0.000
495.50	0.000
495.00	0.000
494.50	0.000
494.00	0.000
493.50	0.000
493.00	0.000
492.50	0.000
492.00	0.000
491.50	0.000
491.00	0.000
490.50	-0.001
490.00	0.000
489.50	0.000
489.00	-0.001
488.50	0.000
488.00	0.000
487.50	0.000
487.00	0.000
486.50	-0.001
486.00	0.000
485.50	-0.001
485.00	0.000
484.50	0.000
484.00	0.000
483.50	0.000
483.00	0.000
482.50	0.000
482.00	0.000
481.50	0.000
481.00	-0.001
480.50	0.000
480.00	0.000
479.50	-0.001
479.00	0.000
478.50	0.000
478.00	0.000
477.50	0.000
477.00	-0.001
476.50	-0.001
476.00	0.000
475.50	0.000
475.00	-0.001
474.50	0.000
474.00	0.000
473.50	-0.001
473.00	0.000
472.50	0.000
472.00	0.000
471.50	-0.001
471.00	-0.001
470.50	0.000
470.00	0.000
469.50	0.000
469.00	-0.001
468.50	0.000
468.00	0.000
467.50	0.000
467.00	0.000
466.50	0.000
466.00	0.000
465.50	0.000
465.00	-0.001
464.50	0.000
464.00	0.000
463.50	0.000
463.00	0.000
462.50	0.000
462.00	0.000
461.50	0.000
461.00	0.000
460.50	0.000
460.00	0.000
459.50	-0.001
459.00	0.000
458.50	0.000
458.00	0.000
457.50	0.000
457.00	-0.001
456.50	0.000
456.00	0.000
455.50	0.000
455.00	0.000
454.50	0.000
454.00	0.000
453.50	-0.001
453.00	0.000
452.50	0.000
452.00	-0.001
451.50	-0.001
451.00	-0.001
450.50	-0.001
450.00	0.000
449.50	-0.001
449.00	0.000
448.50	-0.001
448.00	-0.001
447.50	-0.001
447.00	0.000
446.50	-0.001
446.00	0.000
445.50	0.000
445.00	-0.001
444.50	0.000
444.00	-0.001
443.50	0.000
443.00	0.000
442.50	-0.001
442.00	0.000
441.50	0.000
441.00	-0.001
440.50	-0.001
440.00	-0.001
439.50	0.000
439.00	-0.001
438.50	0.000
438.00	0.000
437.50	0.000
437.00	-0.001
436.50	0.000
436.00	0.000
435.50	0.000
435.00	-0.001
434.50	0.000
434.00	0.000
433.50	-0.001
433.00	0.000
432.50	0.000
432.00	0.000
431.50	0.000
431.00	0.000
430.50	0.000
430.00	0.000
429.50	0.000
429.00	0.000
428.50	0.000
428.00	0.000
427.50	0.000
427.00	0.000
426.50	0.000
426.00	0.000
425.50	0.000
425.00	0.000
424.50	0.000
424.00	0.001
423.50	0.000
423.00	0.000
422.50	0.000
422.00	0.000
421.50	-0.001
421.00	0.000
420.50	0.000
420.00	0.000
419.50	0.000
419.00	0.000
418.50	-0.001
418.00	0.000
417.50	0.000
417.00	0.000
416.50	0.000
416.00	0.000
415.50	0.000
415.00	-0.001
414.50	-0.001
414.00	0.000
413.50	-0.001
413.00	0.000
412.50	0.000
412.00	0.001
411.50	0.000
411.00	0.000
410.50	0.000
410.00	0.000
409.50	0.000
409.00	0.000
408.50	0.000
408.00	0.000
407.50	0.000
407.00	0.000
406.50	-0.001
406.00	0.000
405.50	0.000
405.00	0.000
404.50	0.000
404.00	0.000
403.50	0.000
403.00	-0.001
402.50	0.000
402.00	0.000
401.50	0.000
401.00	-0.001
400.50	-0.001
400.00	0.000
399.50	0.000
399.00	0.000
398.50	0.000
398.00	0.000
397.50	0.000
397.00	0.000
396.50	0.000
396.00	-0.001
395.50	0.000
395.00	-0.001
394.50	0.000
394.00	0.000
393.50	0.000
393.00	0.000
392.50	0.000
392.00	0.000
391.50	0.000
391.00	0.000
390.50	0.000
390.00	0.000
389.50	-0.001
389.00	-0.001
388.50	0.000
388.00	0.000
387.50	0.000
387.00	-0.001
386.50	-0.001
386.00	-0.001
385.50	-0.001
385.00	0.000
384.50	-0.001
384.00	0.000
383.50	-0.001
383.00	0.001
382.50	0.000
382.00	0.001
381.50	0.000
381.00	0.001
380.50	-0.001
380.00	-0.001
379.50	-0.001
379.00	0.000
378.50	0.000
378.00	0.001
377.50	0.000
377.00	0.000
376.50	0.000
376.00	0.000
375.50	0.000
375.00	-0.001
374.50	0.001
374.00	-0.001
373.50	-0.001
373.00	0.000
372.50	-0.001
372.00	-0.001
371.50	0.000
371.00	0.000
370.50	0.000
370.00	-0.001
369.50	0.000
369.00	-0.001
368.50	-0.001
368.00	-0.001
367.50	0.000
367.00	0.000
366.50	0.000
366.00	0.000
365.50	0.000
365.00	0.000
364.50	0.000
364.00	0.000
363.50	-0.001
363.00	0.001
362.50	-0.001
362.00	0.000
361.50	0.000
361.00	0.000
360.50	-0.001
360.00	-0.001
359.50	-0.001
359.00	0.000
358.50	0.000
358.00	-0.001
357.50	0.001
357.00	0.000
356.50	-0.001
356.00	0.000
355.50	-0.001
355.00	-0.001
354.50	0.000
354.00	-0.001
353.50	0.000
353.00	-0.001
352.50	0.000
352.00	0.000
351.50	0.000
351.00	0.000
350.50	0.000
350.00	0.000
349.50	0.000
349.00	0.001
348.50	0.000
348.00	0.000
347.50	0.001
347.00	-0.001
346.50	0.000
346.00	0.000
345.50	0.000
345.00	0.000
344.50	-0.001
344.00	0.000
343.50	0.000
343.00	0.000
342.50	0.000
342.00	-0.001
341.50	0.000
341.00	0.000
340.50	0.001
340.00	0.001
339.50	0.001
339.00	-0.001
338.50	0.000
338.00	0.000
337.50	0.000
337.00	-0.002
336.50	0.001
336.00	-0.002
335.50	0.000
335.00	-0.001
334.50	-0.002
334.00	0.000
333.50	0.001
333.00	-0.001
332.50	-0.001
332.00	-0.001
331.50	-0.002
331.00	0.000
330.50	-0.001
330.00	-0.001
329.50	0.001
329.00	-0.001
328.50	-0.002
328.00	0.001
327.50	0.001
327.00	-0.001
326.50	-0.001
326.00	0.000
325.50	0.002
325.00	-0.002
324.50	0.000
324.00	0.001
323.50	-0.001
323.00	0.000
322.50	-0.001
322.00	0.000
321.50	-0.001
321.00	0.000
320.50	-0.001
320.00	-0.001
319.50	0.000
319.00	0.000
318.50	-0.001
318.00	0.000
317.50	0.000
317.00	0.000
316.50	0.000
316.00	0.000
315.50	-0.001
315.00	0.000
314.50	0.000
314.00	-0.001
313.50	0.000
313.00	0.000
312.50	0.000
312.00	0.000
311.50	-0.001
311.00	0.001
310.50	0.000
310.00	0.000
309.50	0.000
309.00	0.000
308.50	0.001
308.00	0.000
307.50	0.000
307.00	0.000
306.50	-0.001
306.00	0.000
305.50	0.000
305.00	0.000
304.50	0.000
304.00	0.000
303.50	0.000
303.00	0.000
302.50	0.000
302.00	0.000
301.50	0.000
301.00	0.000
300.50	0.000
300.00	0.000
299.50	0.000
299.00	0.000
298.50	0.000
298.00	0.000
297.50	-0.001
297.00	-0.001
296.50	0.000
296.00	0.000
295.50	-0.001
295.00	0.001
294.50	0.000
294.00	-0.001
293.50	0.000
293.00	0.000
292.50	0.000
292.00	-0.001
291.50	0.000
291.00	0.000
290.50	0.000
290.00	0.000
289.50	0.001
289.00	0.000
288.50	0.000
288.00	0.000
287.50	0.000
287.00	0.000
286.50	0.000
286.00	0.000
285.50	-0.001
285.00	0.000
284.50	-0.001
284.00	0.000
283.50	0.000
283.00	-0.001
282.50	0.000
282.00	-0.001
281.50	0.000
281.00	0.000
280.50	0.000
280.00	0.000
279.50	0.000
279.00	0.000
278.50	-0.001
278.00	0.000
277.50	-0.001
277.00	0.000
276.50	0.000
276.00	0.000
275.50	0.000
275.00	0.000
274.50	-0.001
274.00	0.000
273.50	0.000
273.00	0.000
272.50	0.000
272.00	0.000
271.50	0.000
271.00	-0.001
270.50	0.000
270.00	0.000
269.50	0.000
269.00	-0.001
268.50	0.000
268.00	0.000
267.50	0.000
267.00	0.000
266.50	0.000
266.00	-0.001
265.50	0.000
265.00	0.000
264.50	0.000
264.00	0.000
263.50	-0.001
263.00	-0.001
262.50	0.000
262.00	0.000
261.50	0.000
261.00	0.000
260.50	0.000
260.00	-0.001
259.50	0.000
259.00	0.000
258.50	0.000
258.00	0.000
257.50	0.000
257.00	0.000
256.50	0.000
256.00	0.000
255.50	0.000
255.00	0.000
254.50	-0.001
254.00	0.000
253.50	0.000
253.00	-0.001
252.50	0.000
252.00	-0.001
251.50	0.000
251.00	0.000
250.50	0.000
250.00	0.000
249.50	0.000
249.00	-0.001
248.50	-0.001
248.00	-0.001
247.50	-0.001
247.00	0.000
246.50	0.000
246.00	0.000
245.50	0.000
245.00	0.000
244.50	0.000
244.00	0.000
243.50	-0.001
243.00	-0.001
242.50	0.000
242.00	-0.001
241.50	0.000
241.00	0.000
240.50	0.000
240.00	0.000
239.50	-0.001
239.00	0.000
238.50	-0.001
238.00	-0.001
237.50	0.000
237.00	0.000
236.50	0.000
236.00	0.000
235.50	0.000
235.00	0.000
234.50	-0.001
234.00	0.000
233.50	0.000
233.00	0.000
232.50	0.000
232.00	0.000
231.50	-0.001
231.00	-0.001
230.50	-0.001
230.00	0.000
229.50	0.000
229.00	-0.001
228.50	-0.001
228.00	0.000
227.50	-0.001
227.00	0.000
226.50	-0.001
226.00	-0.001
225.50	-0.001
225.00	0.000
224.50	0.000
224.00	0.000
223.50	-0.001
223.00	-0.001
222.50	0.000
222.00	0.000
221.50	-0.001
221.00	-0.001
220.50	-0.001
220.00	-0.001
219.50	-0.002
219.00	0.000
218.50	-0.001
218.00	-0.001
217.50	-0.001
217.00	-0.002
216.50	-0.002
216.00	-0.002
215.50	-0.001
215.00	-0.002
214.50	-0.002
214.00	-0.002
213.50	-0.002
213.00	-0.002
212.50	-0.001
212.00	-0.003
211.50	-0.003
211.00	-0.002
210.50	-0.003
210.00	-0.003
209.50	-0.002
209.00	-0.002
208.50	-0.003
208.00	-0.003
207.50	-0.004
207.00	-0.003
206.50	-0.004
206.00	-0.003
205.50	-0.003
205.00	-0.002
204.50	-0.004
204.00	-0.004
203.50	-0.005
203.00	-0.004
202.50	-0.005
202.00	-0.001
201.50	-0.004
201.00	-0.003
200.50	-0.004
200.00	-0.003

